time_s,total_vertical_force_n,total_pitch_moment_nm,raw_bem_vertical_force_n,raw_bem_pitch_moment_nm,pre_chine_bem_vertical_force_n,pre_chine_bem_pitch_moment_nm,post_chine_bem_vertical_force_n,post_chine_bem_pitch_moment_nm,bem_vertical_force_n,bem_pitch_moment_nm,front_vertical_force_n,front_pitch_moment_nm,transom_vertical_force_n,transom_pitch_moment_nm,active_plane_count,potential_bvp_relative_residual,pressure_bvp_relative_residual,free_surface_pressure_max_abs_pa,contact_constraint_max_abs_m
0.0,257.28264416827716,-30.935210402780438,254.49156168697007,-32.79882632494,34.48132171667753,13.148552410520704,220.0102399702925,-45.90694520887709,254.49156168697007,-32.79882632494,2.791082481307061,1.8636159221595656,0.0,0.0,11,1.4925198270057925e-15,1.3571563511552898e-15,4.440892098500626e-13,6.938893903907228e-17
0.003110384922333199,261.6438572276707,-28.783928012944514,257.88277426252324,-31.265769217953093,36.375900860313955,13.733642404163133,221.50687340220924,-44.94746058356002,257.88277426252324,-31.265769217953093,3.761082965147455,2.4818412050085787,0.0,0.0,10,9.95740680776528e-16,1.4532358548143109e-15,2.220446049250313e-13,0.0
0.006220769844666398,263.6595966006358,-28.73635143643474,258.7865049453626,-31.91383021024717,36.01873539346099,13.541247757930586,222.76776955190158,-45.407765805583736,258.7865049453626,-31.91383021024717,4.873091655273177,3.1774787738124286,0.0,0.0,10,1.2655645088155121e-15,2.16700998720224e-15,4.440892098500626e-13,0.0
0.009331154766999597,264.5905403127554,-28.992738664277958,258.46517224328306,-32.93881271083124,34.82202014316867,13.011939203541607,223.64315210011443,-45.912019957018856,258.46517224328306,-32.93881271083124,6.125368069472343,3.9460740465532833,0.0,0.0,10,1.2717498218729887e-15,1.3678810206420267e-15,4.440892098500626e-13,0.0
0.012441539689332795,270.04356354544865,-28.3623527778522,262.5277617983906,-33.145343191816735,34.75731622188789,12.735317049565781,227.7704455765027,-45.85404655101821,262.5277617983906,-33.145343191816735,7.515801747058022,4.782990413964532,0.0,0.0,10,1.3267731449524026e-15,1.2833296673944792e-15,2.220446049250313e-13,0.0
0.015551924611665994,272.28149506022254,-28.014831492922696,263.2395770340956,-33.6982583294142,34.835117398253935,12.671785821233755,228.40445963584168,-46.36852904262097,263.2395770340956,-33.6982583294142,9.041918026126929,5.683426836491508,0.0,0.0,10,1.0397495802207314e-15,1.6976852533564638e-15,2.220446049250313e-13,0.0
0.018662309533999194,270.0887505003829,-28.54388226586125,259.3878654090743,-35.1863182523227,33.14788904267533,11.982118573424984,226.239976366399,-47.150394904988055,259.3878654090743,-35.1863182523227,10.700885091308564,6.642435986461448,0.0,0.0,10,1.075755663042634e-15,1.8279771128730065e-15,4.440892098500626e-13,0.0
0.02177269445633239,276.4231084574777,-27.31198258373907,263.93358619042544,-34.96692544074378,34.316695595833835,12.176459636863077,229.6168905945916,-47.104485737944984,263.93358619042544,-34.96692544074378,12.489522267052264,7.654942857004709,0.0,0.0,10,1.2517027537261369e-15,1.4836790725947278e-15,4.440892098500626e-13,0.0
0.02488307937866559,272.49432838735686,-30.542756433793343,269.72997123889746,-32.475635638810715,38.87793157678862,15.032654359373158,230.85203966210884,-47.46064554196913,269.72997123889746,-32.475635638810715,2.7643571484593816,1.93287920501737,0.0,0.0,11,1.5893403821811018e-15,1.966348126877516e-15,2.220446049250313e-13,0.0
0.02799346430099879,272.70678193765656,-29.32211167377138,268.9961265159749,-31.887526755064584,38.92804452645157,15.173537469615555,230.0680819895234,-47.00930761381162,268.9961265159749,-31.887526755064584,3.710655421681698,2.5654150812932044,0.0,0.0,10,1.6284004494670457e-15,2.5353884236830774e-15,4.440892098500626e-13,0.0
0.031103849223331988,278.1617703421246,-28.672368061842942,273.37215775685837,-31.9461172534529,39.52899636970584,15.137618010766165,233.84316138715255,-47.027327603702545,273.37215775685837,-31.9461172534529,4.7896125852662506,3.2737491916099586,0.0,0.0,10,1.0272932155774428e-15,1.325885530003799e-15,4.440892098500626e-13,0.0
0.034214234145665184,280.1624548478774,-28.552953503123234,274.1643395124678,-32.605591088325816,39.33257435554394,14.984217491216194,234.8317651569238,-47.54406228086219,274.1643395124678,-32.605591088325816,5.998115335409643,4.052637585202583,0.0,0.0,10,1.3128143105224436e-15,1.524506739588844e-15,4.440892098500626e-13,0.0
0.03732461906799839,280.7954793828147,-28.806081168312854,273.4627515612305,-33.702795050576874,38.0334101178011,14.424815578688056,235.4293414434294,-48.09984261579636,273.4627515612305,-33.702795050576874,7.332727821584195,4.89671388226402,0.0,0.0,10,1.1845117124043917e-15,1.5335039554234746e-15,4.440892098500626e-13,0.0
0.040435003990331585,283.24278077477015,-28.167310319649186,274.4530769320182,-33.96782006311106,39.435701269614526,14.670620948205483,235.01737566240368,-48.63832391679412,274.4530769320182,-33.96782006311106,8.789703842751974,5.800509743461876,0.0,0.0,10,2.3410068886600364e-15,1.3038579394020746e-15,8.881784197001252e-13,0.0
0.04354538891266478,285.59378388130443,-28.151137018413376,275.2287838101783,-34.90961251757435,37.869607469934195,13.99903269529995,237.35917634024412,-48.8900126308359,275.2287838101783,-34.90961251757435,10.365000071126149,6.7584754991609755,0.0,0.0,10,1.1747104693818756e-15,2.507710106503249e-15,4.440892098500626e-13,0.0
0.046655773834997985,287.2099227018997,-28.048454717550648,275.15563245211763,-35.81345556772702,36.66297797512235,13.51095896558237,238.49265447699528,-49.29151187662785,275.15563245211763,-35.81345556772702,12.054290249782085,7.76500085017637,0.0,0.0,10,1.0865547365943037e-15,1.1740163268484082e-15,1.1102230246251565e-13,0.0
0.04976615875733118,287.38301414112635,-30.323488268820512,284.6905194775644,-32.28780125061237,43.29916264729119,17.065063054287904,241.39135683027322,-49.3038079205938,284.6905194775644,-32.28780125061237,2.692494663561947,1.9643129817918576,0.0,0.0,11,1.6656277421710983e-15,2.3983430457757687e-15,8.881784197001252e-13,0.0
0.05287654367966438,287.63599595961006,-29.072435650087932,284.0438450730261,-31.664646411949917,43.43874835128393,17.23166067460346,240.60509672174223,-48.844524645075744,284.0438450730261,-31.664646411949917,3.5921508865839384,2.5922107618619843,0.0,0.0,10,1.2989277481291176e-15,1.2161850602181804e-15,2.220446049250313e-13,0.0
0.05598692860199758,288.2569858021237,-29.466115275162025,283.6455959267501,-32.75728185004917,42.11451565341708,16.682020893797365,241.5310802733331,-49.38981952332879,283.6455959267501,-32.75728185004917,4.6113898753735985,3.2911665748871446,0.0,0.0,10,1.2358476762558512e-15,1.840545025971206e-15,4.440892098500626e-13,0.0
0.05909731352433078,288.66553687431195,-29.67752850208777,282.9195170018258,-33.7328778211187,41.974112865161715,16.366687888573548,240.94540413666414,-50.10140967884253,282.9195170018258,-33.7328778211187,5.746019872486162,4.0553493190309275,0.0,0.0,10,1.4582972187737145e-15,2.7737890395680523e-15,4.440892098500626e-13,0.0
0.062207698446663975,292.82478880358184,-29.052573370990658,285.8331861898132,-33.93145470499096,42.33899396349942,16.391319323180724,243.49419222631374,-50.31141943733414,285.8331861898132,-33.93145470499096,6.991602613768623,4.878881334000305,0.0,0.0,10,1.0972535745047326e-15,1.968443722092445e-15,2.220446049250313e-13,0.0
0.06531808336899718,294.0997190345272,-29.174473093040074,285.7562489944889,-34.93033292865864,40.90380487522278,15.782045649035048,244.85244411926607,-50.71132707856801,285.7562489944889,-34.93033292865864,8.34347004003829,5.755859835618568,0.0,0.0,10,1.256545676107972e-15,1.5337807471763668e-15,2.220446049250313e-13,0.0
0.06842846829133037,299.0956014564715,-28.278721947671958,289.29885981013075,-34.959100016876356,42.00899396927485,15.884844337710595,247.28986584085584,-50.821405029435944,289.29885981013075,-34.959100016876356,9.79674164634076,6.680378069204399,0.0,0.0,10,1.2187974681801126e-15,1.9704132569181964e-15,1.1102230246251565e-13,0.0
0.07153885321366357,300.49878173512604,-28.22338846124464,289.15243933700765,-35.86993455804998,40.80327344615867,15.381770814182236,248.34916589084898,-51.212872194388666,289.15243933700765,-35.86993455804998,11.34634239811842,7.646546096805339,0.0,0.0,10,1.4107864533509364e-15,2.81883429893494e-15,2.220446049250313e-13,0.0
0.07464923813599678,296.2213731780315,-31.582376943368235,293.6416638911206,-33.53671969620691,44.579978271782984,18.15284832956781,249.0616856193376,-51.64021845240868,293.6416638911206,-33.53671969620691,2.5797092869109677,1.954342752838672,0.0,0.0,11,1.4706639933617587e-15,1.3261844260121344e-15,2.220446049250313e-13,0.0
0.07775962305832997,298.0378745603789,-29.784161431340355,294.62428140895446,-32.34281520662046,46.53388324975076,18.83272456063712,248.09039815920366,-51.14910810905971,294.62428140895446,-32.34281520662046,3.4135931514244495,2.5586537752801024,0.0,0.0,10,1.3139642615656339e-15,1.6958396277110621e-15,4.440892098500626e-13,0.0
0.08087000798066317,297.0364004446881,-30.436885605756252,292.68488817700006,-33.66353773844255,45.15259648554421,18.235645123208467,247.53229169145584,-51.89355539023685,292.68488817700006,-33.66353773844255,4.351512267688089,3.226652132686299,0.0,0.0,10,1.976246138697642e-15,1.9457544862538823e-15,4.440892098500626e-13,0.0
0.08398039290299637,298.56554070069376,-30.739206264008647,293.17695306358183,-34.691415535828675,43.441837501273355,17.457761427536923,249.73511556230847,-52.12454970104087,293.17695306358183,-34.691415535828675,5.388587637111926,3.9522092718200286,0.0,0.0,10,9.831691280615356e-16,1.750260346645341e-15,4.440892098500626e-13,0.0
0.08709077782532956,301.09753887882255,-30.336601122971913,294.5777528901208,-35.06583411364904,43.67311512167831,17.473676995723665,250.90463776844254,-52.51821925700829,294.5777528901208,-35.06583411364904,6.519785988701756,4.729232990677126,0.0,0.0,10,1.3927646144493847e-15,1.3468896704266015e-15,2.220446049250313e-13,0.0
0.09020116274766277,304.188134178195,-29.996133215958196,296.4481957002159,-35.54782079976468,43.64151076495309,17.15963629468032,252.80668493526278,-52.706666609122735,296.4481957002159,-35.54782079976468,7.739938477979162,5.551687583806484,0.0,0.0,10,1.2109167930873315e-15,1.170398570812115e-15,8.881784197001252e-13,0.0
0.09331154766999597,304.3017810020769,-30.385885301587265,295.25802142786296,-36.79949858908822,41.63555126727654,16.333670785295915,253.62247016058643,-53.09412791768278,295.25802142786296,-36.79949858908822,9.04375957421391,6.413613287500956,0.0,0.0,10,1.1928318014186391e-15,1.535308574721284e-15,2.220446049250313e-13,0.0
0.09642193259232916,306.8933460985576,-29.763429348131417,296.4674800353827,-37.07257430493485,42.2945060553986,16.466499791498677,254.17297397998414,-53.49122701943068,296.4674800353827,-37.07257430493485,10.425866063174855,7.3091449568034275,0.0,0.0,10,1.273562354839598e-15,1.829831758764998e-15,2.220446049250313e-13,0.0
0.09953231751466236,300.69897212511046,-33.32637001996516,298.26636825059023,-35.22930750098309,45.17128598653119,18.969226081507873,253.09508226405896,-54.165742692139005,298.26636825059023,-35.22930750098309,2.432603874520205,1.9029374810179283,0.0,0.0,11,1.0322594140316088e-15,2.0965070454872817e-15,4.440892098500626e-13,0.0
0.10264270243699557,300.5245407237834,-32.518518991745815,297.3377199184738,-34.985353392859,44.218374189742065,18.544259337143018,253.11934572873176,-53.45060725741998,297.3377199184738,-34.985353392859,3.1868208053095994,2.466834401113182,0.0,0.0,10,1.2726696674537137e-15,2.5577229904539444e-15,4.440892098500626e-13,0.0
0.10575308735932876,304.7749437192656,-31.5571323812191,300.7464794193957,-34.64239948716377,46.281623598954425,19.135614050319006,254.46485582044124,-53.7148247443359,300.7464794193957,-34.64239948716377,4.028464299869863,3.0852671059446717,0.0,0.0,10,1.1860981107173004e-15,1.7936064312215363e-15,4.440892098500626e-13,0.0
0.10886347228166196,304.9692308102203,-32.00665954185618,300.0168390358317,-35.75880224785451,44.61535754133684,18.353742937885816,255.40148149449493,-54.031538246320856,300.0168390358317,-35.75880224785451,4.952391774388642,3.7521427059983306,0.0,0.0,10,1.5203809394059717e-15,1.827690129417367e-15,4.440892098500626e-13,0.0
0.11197385720399516,306.6000868819337,-31.72662995163183,300.6466862836865,-36.18811316612282,44.51905235568999,18.260929680656837,256.12763392799656,-54.35840565942191,300.6466862836865,-36.18811316612282,5.953400598247199,4.461483214490991,0.0,0.0,10,1.7526868194774647e-15,1.592745507810734e-15,8.881784197001252e-13,0.0
0.11508424212632835,308.8566036183344,-31.524942759979336,301.8303574183339,-36.73238502917386,44.448821899683914,17.84753074762512,257.3815355186501,-54.524855402107995,301.8303574183339,-36.73238502917386,7.026246200000526,5.2074422691945275,0.0,0.0,10,1.6336540022163129e-15,1.203232559272066e-15,1.1102230246251565e-13,0.0
0.11819462704866156,308.78805970594817,-31.773696495777486,300.6223997583741,-37.75801733328049,42.77201227094822,17.122967257939116,257.85038748742585,-54.836940052326554,300.6223997583741,-37.75801733328049,8.165659947574046,5.984320837503006,0.0,0.0,10,1.2298009076618045e-15,1.329448457018286e-15,4.440892098500626e-13,0.0
0.12130501197099476,309.8683100812544,-31.56997670953863,300.501943339746,-38.356558573816876,42.44742240792988,16.833755351687913,258.0545209318161,-55.17521937023283,300.501943339746,-38.356558573816876,9.366366741508392,6.786581864278246,0.0,0.0,10,1.6640604668142316e-15,1.4997550801654348e-15,4.440892098500626e-13,0.0
0.12441539689332795,306.3279455992242,-34.14136381427373,304.06837548077357,-35.955063017740336,46.05745591985936,19.562461594588584,258.01091956091426,-55.50042789779722,304.06837548077357,-35.955063017740336,2.2595701184506343,1.8136992034666037,0.0,0.0,11,1.154643124439628e-15,2.1591113866804365e-15,4.440892098500626e-13,0.0
0.12752578181566115,301.8609107421269,-33.84514265208986,298.9347280108347,-36.16939052855546,44.10456414533963,18.9190568646747,254.83016386549505,-55.064758132055246,298.9347280108347,-36.16939052855546,2.926182731292188,2.324247876465599,0.0,0.0,10,1.4637852441091413e-15,1.5609690992081903e-15,4.440892098500626e-13,0.0
0.13063616673799436,306.12895584472113,-32.80667558180657,302.4650587813127,-35.686103505475884,46.23374663734778,19.512775032853387,256.23131214396494,-55.164509204793795,302.4650587813127,-35.686103505475884,3.6638970634084536,2.8794279236693097,0.0,0.0,10,1.0590119659849323e-15,9.63340002668343e-16,2.220446049250313e-13,0.0
0.13374655166032756,306.2574905004273,-33.12703282705614,301.7897914887434,-36.60053628190604,44.972802169460515,18.84952705188413,256.81698931928287,-55.39292722200178,301.7897914887434,-36.60053628190604,4.467699011683924,3.473503454849898,0.0,0.0,10,1.6257223446802174e-15,1.1648556732061162e-15,4.440892098500626e-13,0.0
0.13685693658266074,305.8067631291289,-33.56082472935916,300.4741652966685,-37.66174162828169,43.277910160537914,18.037667654718334,257.1962551361306,-55.620124559051376,300.4741652966685,-37.66174162828169,5.332597832460383,4.100916898922527,0.0,0.0,10,1.814847735233683e-15,1.7753077175220913e-15,2.220446049250313e-13,0.0
0.13996732150499394,306.55670577296036,-33.38314304505149,300.30306421955373,-38.1394438054417,42.90355451700675,17.797897400679247,257.39950970254705,-55.841210757415325,300.30306421955373,-38.1394438054417,6.253641553406617,4.756300760390208,0.0,0.0,10,1.2538363893611752e-15,2.6293020711298184e-15,2.220446049250313e-13,0.0
0.14307770642732714,308.25353356481475,-32.99754154021408,301.02760170900893,-38.43202974346721,43.1551155274257,17.589799196222003,257.8724861815832,-55.95315252631036,301.02760170900893,-38.43202974346721,7.2259318558058325,5.434488203253134,0.0,0.0,10,2.0121551344401506e-15,1.2812755239174426e-15,2.220446049250313e-13,0.0
0.14618809134966035,307.10604187882086,-33.477847529206194,298.8614034919002,-39.60836998330353,41.04406649336499,16.602801133971116,257.8173369985352,-56.14200372301724,298.8614034919002,-39.60836998330353,8.24463838692065,6.13052245409734,0.0,0.0,10,1.4819499472158509e-15,1.5096620933950047e-15,4.440892098500626e-13,0.0
0.14929847627199355,305.08138841797717,-35.15659295291723,303.0113444087548,-36.850001117510296,45.46317914594583,19.54196901482122,257.548165262809,-56.33578964235867,303.0113444087548,-36.850001117510296,2.070044009222378,1.6934081645930685,0.0,0.0,11,1.2943260130144057e-15,1.5376238660420003e-15,2.220446049250313e-13,0.0
0.15240886119432676,300.2630988376527,-35.104002943338855,297.6160532353483,-37.24666434642451,43.000490776574054,18.730558790328736,254.6155624587743,-55.94392303462923,297.6160532353483,-37.24666434642451,2.6470456023044155,2.1426614030856515,0.0,0.0,10,1.1643098833202994e-15,1.896113626590449e-15,2.220446049250313e-13,0.0
0.15551924611665993,300.6514620858379,-35.23268379428838,297.3712579338776,-37.85957225589572,42.27191283938961,18.152011581594106,255.09934509448803,-56.00147823272041,297.3712579338776,-37.85957225589572,3.2802041519603202,2.62688846160734,0.0,0.0,10,1.2975342489636746e-15,1.541989899569034e-15,2.220446049250313e-13,0.0
0.15862963103899314,302.8574166539941,-34.3812910516191,298.89247200615387,-37.52225993111467,43.82443863952196,18.601664528044754,255.0680333666319,-56.1018400304194,298.89247200615387,-37.52225993111467,3.964944647840235,3.1409688794955706,0.0,0.0,10,1.3305733629348965e-15,1.1991033761708704e-15,1.1102230246251565e-13,0.0
0.16174001596132634,302.0657107962645,-34.66588827408111,297.3689316891368,-38.3458895968535,42.473066595209424,17.884382751864035,254.8958650939273,-56.18760549706881,297.3689316891368,-38.3458895968535,4.696779107127723,3.6800013227723927,0.0,0.0,10,1.0682579487745128e-15,1.6455371288589204e-15,1.1102230246251565e-13,0.0
0.16485040088365954,300.85698116365893,-35.03417830270422,295.3856631456458,-39.27348804516938,40.77970989859257,17.04648757581404,254.60595324705324,-56.25473100384164,295.3856631456458,-39.27348804516938,5.471318018013099,4.23930974246516,0.0,0.0,10,1.5691146628517059e-15,1.5312154200281729e-15,4.440892098500626e-13,0.0
0.16796078580599275,301.02379517355774,-34.67569098730554,294.73951407521645,-39.49013937082841,40.56189510573842,16.904231388334416,254.17761896947803,-56.30888119381083,294.73951407521645,-39.49013937082841,6.28428109834129,4.814448383522863,0.0,0.0,10,1.4567031619949995e-15,1.7399723143320742e-15,8.881784197001252e-13,0.0
0.17107117072832595,301.4168548770829,-34.44105124886318,294.2853475241911,-39.84225691434222,40.408121048468345,16.514374310803444,253.87722647572278,-56.28927543287891,294.2853475241911,-39.84225691434222,7.131507352891857,5.401205665479043,0.0,0.0,10,2.108308334093632e-15,1.7002249550124776e-15,2.220446049250313e-13,0.0
0.17418155565065913,297.61201901237683,-36.45355849434577,295.73831020592365,-38.00466947786383,42.48705671609961,18.372182155658585,253.25125348982408,-56.302364677347036,295.73831020592365,-38.00466947786383,1.8737088064531555,1.5511109835180557,0.0,0.0,11,1.6754481620611843e-15,1.957638643805169e-15,4.440892098500626e-13,0.0
0.17729194057299233,295.4712904379288,-35.01266656473693,293.10695106305917,-36.94903588300126,42.5795419139736,18.40035790578896,250.52740914908557,-55.27680277095685,293.10695106305917,-36.94903588300126,2.364339374869628,1.9363693182643287,0.0,0.0,10,1.1356014198318514e-15,1.8086077598071685e-15,2.220446049250313e-13,0.0
0.18040232549532553,293.7941496304376,-35.52208822820437,290.8958516167548,-37.870073117269015,40.86124605759909,17.585585532243144,250.03460555915564,-55.39793367892693,290.8958516167548,-37.870073117269015,2.8982980136827754,2.34798488906465,0.0,0.0,10,1.430539087382234e-15,1.5123910480362593e-15,2.220446049250313e-13,0.0
0.18351271041765874,291.3482951958016,-35.91879142557302,287.8766442689613,-38.70040598849927,39.214679198013776,17.01604867450573,248.66196507094753,-55.68388180627032,287.8766442689613,-38.70040598849927,3.4716509268403035,2.7816145629262476,0.0,0.0,10,1.13997218924266e-15,1.7467471630124144e-15,1.1102230246251565e-13,0.0
0.18662309533999194,292.5247722699101,-35.397785824883165,288.4441808201883,-38.630935803386485,40.03442011561701,17.02490818591933,248.4097607045713,-55.64949196662995,288.4441808201883,-38.630935803386485,4.080591449721802,3.2331499785033175,0.0,0.0,10,1.1168099207680075e-15,1.7151286086072743e-15,2.220446049250313e-13,0.0
0.18973348026232514,291.22411195160146,-35.626058162987945,286.50266477887243,-39.324776602507136,38.77017504641018,16.338212311017056,247.73248973246223,-55.63760531526734,286.50266477887243,-39.324776602507136,4.721447172729004,3.69871843951919,0.0,0.0,10,1.5006253656401073e-15,1.1495178798072389e-15,1.1102230246251565e-13,0.0
0.19284386518465832,290.72769359988575,-35.37403657829515,285.3370072292221,-39.548719412439674,38.40428220357364,16.105816705944896,246.93272502564847,-55.60768039953315,285.3370072292221,-39.548719412439674,5.390686370663666,4.174682834144524,0.0,0.0,10,1.6395123796998397e-15,1.6019713361061455e-15,4.440892098500626e-13,0.0
0.19595425010699152,289.0762953592646,-35.5864345673122,282.99137161697735,-40.244075189389314,36.963182167940474,15.380514540262322,246.02818944903683,-55.556944152454015,282.99137161697735,-40.244075189389314,6.084923742287231,4.657640622077112,0.0,0.0,10,1.1786935666470205e-15,1.645685781506726e-15,1.6653345369377348e-13,0.0
0.19906463502932473,286.48261959979436,-37.00991153771308,284.8028771289032,-38.40684369799535,39.6377815363418,17.104231473307642,245.16509559256144,-55.45262063493887,284.8028771289032,-38.40684369799535,1.6797424708911166,1.3969321602822675,0.0,0.0,11,1.418358108922591e-15,1.8055479914484617e-15,4.440892098500626e-13,0.0
0.20217501995165793,283.9968689323865,-35.32367659231147,281.9055284913423,-37.043896692514366,39.92173936975255,17.255049115583127,241.98378912158972,-54.2302063483373,281.9055284913423,-37.043896692514366,2.091340441044199,1.720220100202891,0.0,0.0,10,1.8354893195433027e-15,2.5053183268903365e-15,8.881784197001252e-13,0.0
0.20528540487399113,282.32901190715614,-35.694575935584425,279.7931096597599,-37.75735123841857,38.49366233957143,16.563469541527006,241.29944732018845,-54.24818833209518,279.7931096597599,-37.75735123841857,2.535902247396214,2.0627753028341447,0.0,0.0,10,1.257738335901124e-15,2.098706957197143e-15,1.1102230246251565e-13,0.0
0.2083957897963243,280.2982275876174,-36.14846389878413,277.2880011280728,-38.56955196715113,36.84551817695152,15.761886310764956,240.44248295112126,-54.26450402786566,277.2880011280728,-38.56955196715113,3.01022645954462,2.421088068366995,0.0,0.0,10,2.0213448559477838e-15,2.0492110557560394e-15,2.220446049250313e-13,0.0
0.2115061747186575,277.576969385664,-36.48539171381296,274.06571303386903,-39.27726807543647,35.19456402838657,15.190156364216751,238.87114900548252,-54.4064776505471,274.06571303386903,-39.27726807543647,3.5112563517949273,2.791876361623508,0.0,0.0,10,1.5004706938564654e-15,1.6434974885304577e-15,2.220446049250313e-13,0.0
0.21461655964099072,277.9655371470389,-36.025957142686224,273.9294540069675,-39.1980396772998,35.807264584744395,15.13811940050965,238.12218942222307,-54.31904057817163,273.9294540069675,-39.1980396772998,4.036083140071428,3.1720825346135784,0.0,0.0,10,1.9858263445445394e-15,1.7306234826797288e-15,2.220446049250313e-13,0.0
0.21772694456332392,276.1593182760675,-36.25979297116161,271.5773696498583,-39.81866231416251,34.55927864987797,14.43900844697141,237.01809099998033,-54.2469726798795,271.5773696498583,-39.81866231416251,4.581948626209195,3.5588693430008997,0.0,0.0,10,1.4364902235381522e-15,1.909989732117573e-15,2.220446049250313e-13,0.0
0.22083732948565712,275.262690133268,-35.94807295866057,270.1164428649872,-39.89768826566852,34.30089558593821,14.26747630263707,235.81554727904904,-54.13511163095863,270.1164428649872,-39.89768826566852,5.146247268280763,3.9496153070079525,0.0,0.0,10,1.5019852708229307e-15,1.3531281494259945e-15,4.440892098500626e-13,0.0
0.22394771440799033,271.6239521512043,-37.33698599498583,270.1277549968408,-38.577823545643994,35.59423485676798,15.469063508761906,234.53352014007285,-53.99741343601789,270.1277549968408,-38.577823545643994,1.4961971543635013,1.2408375506581653,0.0,0.0,11,1.1881451314278513e-15,1.8081284518475674e-15,4.440892098500626e-13,0.0
0.2270580993303235,268.2415593476358,-35.903656029980624,266.4027273301198,-37.41146890870288,35.4902811257907,15.222983647786283,230.91244620432906,-52.58769551259693,266.4027273301198,-37.41146890870288,1.8388320175160224,1.5078128787222536,0.0,0.0,10,1.5991583763604262e-15,2.2706741979649107e-15,1.1102230246251565e-13,0.0
0.2301684842526567,267.86691067066096,-35.574220182184256,265.6603691781174,-37.36287641185223,35.600007926676525,15.244728662911443,230.06036125144092,-52.55008703107285,265.6603691781174,-37.36287641185223,2.2065414925435944,1.78865622966797,0.0,0.0,10,1.259819498645353e-15,1.4463883581790192e-15,8.881784197001252e-13,0.0
0.2332788691749899,265.9796268751701,-35.877258491497344,263.38277267716455,-37.95791379753169,34.31635011189846,14.605808040608132,229.06642256526612,-52.50020998561896,263.38277267716455,-37.95791379753169,2.596854198005548,2.0806553060343482,0.0,0.0,10,1.599299677424623e-15,1.8967132627617553e-15,1.1102230246251565e-13,0.0
0.23638925409732311,263.8622568490205,-36.19227182517787,260.8548137961821,-38.57357343802924,32.930183148151606,13.929105640739575,227.92463064803053,-52.44046405340567,260.8548137961821,-38.57357343802924,3.0074430528384513,2.3813016128513746,0.0,0.0,10,1.1692355201070927e-15,1.4809293596098374e-15,5.551115123125783e-14,0.0
0.23949963901965632,262.253521381903,-36.16733792522298,258.81739582402383,-38.85562241770117,32.18502781179258,13.568340303589217,226.6323680122313,-52.37249548915247,258.81739582402383,-38.85562241770117,3.436125557879142,2.6882844924781866,0.0,0.0,10,1.554503365670991e-15,1.9038939760884655e-15,1.1102230246251565e-13,0.0
0.24261002394198952,259.9634493680559,-36.26880292446958,256.0825857212362,-39.268287667734505,31.32823229825874,13.165354283719957,224.75435342297752,-52.39846847204539,256.0825857212362,-39.268287667734505,3.880863646819656,2.9994847432649214,0.0,0.0,10,1.1753373813581179e-15,2.230608865521902e-15,1.1102230246251565e-13,0.0
0.2457204088643227,258.61977724595897,-36.21209824917852,254.28001411427758,-39.52506611942217,30.704144477960135,12.692745438852072,223.5758696363175,-52.21588239878659,254.28001411427758,-39.52506611942217,4.339763131681413,3.312967870243653,0.0,0.0,10,2.0101796465980345e-15,1.5291652990890167e-15,5.551115123125783e-14,0.0
0.2488307937866559,255.96731742057185,-36.924981156412585,254.6377410492652,-38.016552702154335,32.5549385326668,14.027740643816275,222.08280251659838,-52.02624206875006,254.6377410492652,-38.016552702154335,1.3295763713066413,1.091571545741748,0.0,0.0,11,1.746911937408453e-15,2.160154354687549e-15,5.551115123125783e-14,0.0
0.25194117870898913,248.7630662195306,-34.46219345480015,247.14836251113428,-35.77236732883859,31.5840204625353,13.542151234363974,215.564342048599,-49.279952739140434,247.14836251113428,-35.77236732883859,1.6147037083963283,1.3101738740384405,0.0,0.0,10,1.2149081237859515e-15,1.9106190984540875e-15,2.220446049250313e-13,0.0
0.2550515636313223,248.53406325545427,-34.26207902602681,246.61480252024822,-35.80091875486922,31.779315828605355,13.466746903110431,214.83548669164284,-49.23302586144194,246.61480252024822,-35.80091875486922,1.9192607352060616,1.5388397288424123,0.0,0.0,10,1.4163844955272268e-15,1.9580568195303117e-15,2.220446049250313e-13,0.0
0.2581619485536555,246.88420239485893,-34.52865419628591,244.6427629736425,-36.304208803696646,30.680064252086943,12.913325712621617,213.96269872155557,-49.173697889757996,244.6427629736425,-36.304208803696646,2.2414394212164233,1.7755546074107351,0.0,0.0,10,1.3393433979102234e-15,1.9158943234928533e-15,4.440892098500626e-13,0.0
0.2612723334759887,245.87655783128906,-34.44720930118778,243.29699394540873,-36.465683952176526,30.33488236406978,12.682879735442071,212.96211158133892,-49.09905296981797,243.29699394540873,-36.465683952176526,2.579563885880334,2.0184746509887437,0.0,0.0,10,1.5445140774873668e-15,2.2570774746047732e-15,4.440892098500626e-13,0.0
0.2643827183983219,244.33289804893892,-34.49443804441034,241.40080921766824,-36.760357513068634,29.573237334760904,12.300572048094,211.82757188290734,-49.011344580906865,241.40080921766824,-36.760357513068634,2.932088831270679,2.265919468658295,0.0,0.0,10,1.3805716546046884e-15,1.8315140285272185e-15,4.440892098500626e-13,0.0
0.2674931033206551,242.33870974352098,-34.6742366141092,239.0411120257571,-37.190601411582755,28.486126771489566,11.764069030686882,210.55498525426754,-48.9123780064444,239.0411120257571,-37.190601411582755,3.2975977177638987,2.516364797473556,0.0,0.0,10,1.5135442360717916e-15,1.816852807840434e-15,4.440892098500626e-13,0.0
0.2706034882429883,238.95761759173226,-35.20089586278911,235.28281688412636,-37.969330899902275,26.577631722425142,10.968410307544247,208.70518516170125,-48.905023165832574,235.28281688412636,-37.969330899902275,3.6748007076059075,2.768435037113162,0.0,0.0,10,1.3279370597455054e-15,2.7523420349612386e-15,5.551115123125783e-14,0.0
0.2737138731653215,237.43755613729186,-35.554687063832304,236.2529118097076,-36.51061938745334,28.767251472704373,12.199098710860305,207.4856603370032,-48.70955625470892,236.2529118097076,-36.51061938745334,1.184644327584274,0.9559323236210358,0.0,0.0,11,1.386043305902591e-15,2.6272408741689614e-15,1.1102230246251565e-13,0.0
0.2768242580876547,236.04970206363697,-35.291230334931555,234.62572720421787,-36.426302354834334,28.640505929975763,12.089169203348467,205.98522127424212,-48.502483456038064,234.62572720421787,-36.426302354834334,1.423974859419101,1.1350720199027764,0.0,0.0,11,1.383605589284287e-15,2.14967274240101e-15,1.1102230246251565e-13,0.0
0.2799346430099879,233.77409985442983,-35.37645174130878,232.09512338578762,-36.69826218162456,27.696021207454496,11.59613755789048,204.39910217833315,-48.26832445471183,232.09512338578762,-36.69826218162456,1.6789764686422048,1.3218104403157804,0.0,0.0,11,1.952397819849142e-15,1.4922656751880501e-15,5.551115123125783e-14,0.0
0.2830450279323211,227.12344346472034,-32.93727075236513,225.175038431425,-34.45197133473512,27.053451150330844,11.281939846023,198.12158728109418,-45.69623519925142,225.175038431425,-34.45197133473512,1.948405033295336,1.5147005823699877,0.0,0.0,10,1.3192573820086199e-15,1.7494675583827496e-15,1.1102230246251565e-13,0.0
0.2861554128546543,225.5838890097061,-33.06015463509391,223.35275813022028,-34.772585155389315,26.184454345728,10.859641109079348,197.16830378449228,-45.58623713566807,223.35275813022028,-34.772585155389315,2.2311308794858205,1.7124305202954075,0.0,0.0,10,1.5546739933421902e-15,1.7144889399921267e-15,1.1102230246251565e-13,0.0
0.2892657977769875,225.2212002656653,-32.78248838606422,222.69506388212184,-34.69630457922257,26.45929167648129,10.771199519468636,196.23577220564053,-45.43046779174517,222.69506388212184,-34.69630457922257,2.5261363835434465,1.9138161931583495,0.0,0.0,10,1.3257251724138527e-15,1.4164815365798137e-15,1.1102230246251565e-13,0.0
0.2923761826993207,223.81829490674374,-32.70838118018241,220.9857814395177,-34.826175390066254,25.889029651265684,10.492709354892787,195.096751788252,-45.282796706025344,220.9857814395177,-34.826175390066254,2.8325134672260597,2.1177942098838494,0.0,0.0,10,1.6149535379772272e-15,2.3761542141536495e-15,1.1102230246251565e-13,0.0
0.2954865676216539,221.81283700520942,-32.864571062862524,218.66337599886148,-35.18798575912429,24.82796851848058,9.966036851716972,193.8354074803809,-45.124837263194166,218.66337599886148,-35.18798575912429,3.1494610063479316,2.3234146962617674,0.0,0.0,10,1.3053555524531087e-15,1.6204969427083117e-15,1.1102230246251565e-13,0.0
0.2985969525439871,218.9616321085765,-33.53921297052293,217.89716562358237,-34.37767303099193,25.446886578150373,10.595386435891157,192.45027904543198,-44.95813821733183,217.89716562358237,-34.37767303099193,1.0644664849941359,0.8384600604689948,0.0,0.0,11,1.3159609988488585e-15,2.71069786344774e-15,5.551115123125783e-14,0.0
0.3017073374663203,217.4978032898094,-33.35249176588361,216.2286391195649,-34.33946082852769,25.286432363374143,10.440479360707794,190.94220675619076,-44.77590388265043,216.2286391195649,-34.33946082852769,1.2691641702445238,0.9869690626440754,0.0,0.0,11,1.5651711524066197e-15,1.6606527975772713e-15,2.220446049250313e-13,0.0
0.3048177223886535,215.00078303247543,-33.36071258046018,213.51350531699907,-34.50235322633625,24.650980152688184,10.167425743195182,188.8625251643109,-44.65957133388651,213.51350531699907,-34.50235322633625,1.4872777154763401,1.141640645876066,0.0,0.0,11,1.1105007022122735e-15,1.1581490702389086e-15,1.1102230246251565e-13,0.0
0.3079281073109867,213.5549397002523,-33.12813342434922,211.83691780092346,-34.42959597304919,24.261664266168616,9.923178608962623,187.57525353475484,-44.32933163480782,211.83691780092346,-34.42959597304919,1.7180218993288592,1.301462548699968,0.0,0.0,11,1.18498500132088e-15,1.1463764575907852e-15,8.881784197001252e-13,0.0
0.31103849223331986,211.4966835452631,-33.01639322346383,209.5359758521874,-34.481917827889994,23.56988326980548,9.58148271120621,185.96609258238186,-44.03133712255072,209.5359758521874,-34.481917827889994,1.9607076930757104,1.4655246044261676,0.0,0.0,11,1.5057853896796004e-15,1.4542583449173124e-15,1.1102230246251565e-13,0.0
0.3141488771556531,204.3512458336611,-30.63417135920131,202.1365060236399,-32.26718359181124,22.679564782135486,9.138033839816227,179.45694124150438,-41.36821233351298,202.1365060236399,-32.26718359181124,2.214739810021202,1.6330122326099294,0.0,0.0,10,1.236915830589136e-15,1.917550276705582e-15,5.551115123125783e-14,0.0
0.31725926207798627,203.9966824521208,-30.38713109112784,201.51706819475973,-32.19033113995134,22.86304771327854,9.038526046754377,178.6540204814812,-41.20113706520096,201.51706819475973,-32.19033113995134,2.4796142573610744,1.8032000488234987,0.0,0.0,10,1.419360623314154e-15,1.4095246844230309e-15,5.551115123125783e-14,0.0
0.3203696470003195,202.77926934259594,-30.30088405669964,200.02435343782696,-32.27632966200044,22.375741224484987,8.79356270802054,177.648612213342,-41.04571009843449,200.02435343782696,-32.27632966200044,2.7549159047689837,1.9754456053008023,0.0,0.0,10,1.7681992020969425e-15,1.9574890988499366e-15,8.326672684688674e-14,0.0
0.3234800319226527,200.33455588890843,-30.885863579632584,199.3639095077444,-31.62738093762977,22.832271821638678,9.269831982279314,176.53163768610577,-40.88206506513589,199.3639095077444,-31.62738093762977,0.9706463811640273,0.7415173579971854,0.0,0.0,11,1.4179054765851249e-15,1.2804324843887643e-15,5.551115123125783e-14,0.0
0.32659041684498585,198.6165798784852,-30.876131427813554,197.46569017525562,-31.743600210228088,22.163355444775558,8.967983089872664,175.30233473048008,-40.711125247754396,197.46569017525562,-31.743600210228088,1.1508897032295935,0.867468782414533,0.0,0.0,11,1.5799399337996722e-15,1.942150851328797e-15,5.551115123125783e-14,0.0
0.3297008017673191,197.09114516443654,-30.744742339116605,195.74768175599536,-31.743628940171778,21.78511944592644,8.78277016334954,173.96256231006896,-40.51159978666478,195.74768175599536,-31.743628940171778,1.343463408441168,0.9988866010551719,0.0,0.0,11,1.4470717277436028e-15,2.236379553412057e-15,5.551115123125783e-14,0.0
0.33281118668965226,195.77887586156353,-30.530853005049504,194.2309261738253,-31.665929703376857,21.689653918374805,8.645634435797014,172.54127225545045,-40.292540287092336,194.2309261738253,-31.665929703376857,1.5479496877382124,1.1350766983273526,0.0,0.0,11,1.6934595730039443e-15,2.2630144149607743e-15,5.551115123125783e-14,0.0
0.3359215716119855,193.35057215388434,-30.55444818736187,191.58656070314177,-31.829867531721384,20.996905074438793,8.33076116917817,170.589655628703,-40.1432310077604,191.58656070314177,-31.829867531721384,1.764011450742565,1.2754193443595137,0.0,0.0,11,1.5053494379227086e-15,1.52679824522663e-15,1.1102230246251565e-13,0.0
0.33903195653431867,191.8166089310677,-30.398393651186485,189.8252186115631,-31.817757357441447,20.380966520642673,8.01031323885514,169.44425209092043,-39.80183728389156,189.8252186115631,-31.817757357441447,1.991390319504594,1.4193637062549629,0.0,0.0,11,1.513478447594515e-15,1.7318370559553383e-15,5.551115123125783e-14,0.0
0.3421423414566519,189.7647294180489,-30.34045730422055,187.53482472593342,-31.906879816317858,19.578850274950696,7.619696260594232,167.9559744509827,-39.49941226790341,187.53482472593342,-31.906879816317858,2.2299046921154604,1.5664225120973096,0.0,0.0,11,1.3775963941685205e-15,1.7365397095345143e-15,4.440892098500626e-13,0.0
0.3452527263789851,183.93023267030222,-27.98400288628132,181.45078478569323,-29.700169756917354,19.323448742752024,7.441254463948194,162.1273360429412,-37.11847922037164,181.45078478569323,-29.700169756917354,2.4794478846089762,1.7161668706360345,0.0,0.0,10,1.1403519961441697e-15,1.083966315142587e-15,1.1102230246251565e-13,0.0
0.34836311130131825,182.93586086913004,-28.137416026491078,182.03216455796465,-28.803080805621004,20.544624360498712,8.128048764924904,161.48754019746593,-36.92148663126789,182.03216455796465,-28.803080805621004,0.9036963111653773,0.6656647791299269,0.0,0.0,11,1.8204834020648593e-15,1.5086071977050025e-15,4.440892098500626e-13,0.0
0.3514734962236515,181.58308813135426,-28.120786176737894,180.51451760818654,-28.896846302026084,19.9586291043259,7.866741491870746,160.55588850386061,-36.76067725242292,180.51451760818654,-28.896846302026084,1.0685705231677218,0.7760601252881898,0.0,0.0,11,1.5116594235848848e-15,1.6441067844691236e-15,5.551115123125783e-14,0.0
0.35458388114598466,180.03267886772838,-28.146061494653527,178.78706212655663,-29.037804106526977,19.270098028872315,7.559405556151114,159.5169640976843,-36.581701439751036,178.78706212655663,-29.037804106526977,1.2456167411717438,0.8917426118734506,0.0,0.0,11,1.3789643788030748e-15,1.447471951699982e-15,5.551115123125783e-14,0.0
0.3576942660683179,178.42080941219112,-28.13648352017233,176.9860921780086,-29.14872779990694,18.61024463825993,7.269409895867689,158.37584753974863,-36.39377373362902,176.9860921780086,-29.14872779990694,1.434717234182536,1.0122442797346105,0.0,0.0,11,1.3160998229053438e-15,1.3288099148334705e-15,4.440892098500626e-13,0.0
0.36080465099065107,177.55839479167983,-27.8677134723866,175.92257071640407,-29.00486328291839,18.730858123916803,7.201389527920975,157.19171259248725,-36.184097551291714,175.92257071640407,-29.00486328291839,1.6358240752757713,1.1371498105317872,0.0,0.0,11,1.4056100074629854e-15,1.8499745729993008e-15,4.440892098500626e-13,0.0
0.36391503591298424,176.07246461036635,-27.718808755495466,174.22350677516948,-28.98490081050313,18.317530708323638,7.005114949515406,155.90597606684585,-35.96741689001179,174.22350677516948,-28.98490081050313,1.8489578351968674,1.2660920550076664,0.0,0.0,11,1.5729333468951154e-15,1.3708227086433939e-15,8.326672684688674e-14,0.0
0.3670254208353175,173.8470635374327,-27.754212658732524,171.7728571584613,-29.152960361148434,17.58656031422003,6.6620524047694865,154.18629684424127,-35.799152050062915,171.7728571584613,-29.152960361148434,2.074206378971381,1.3987477024159107,0.0,0.0,11,1.5114874817037046e-15,1.4823769301797863e-15,1.1102230246251565e-13,0.0
0.37013580575765065,172.39025082494632,-27.62028510032544,170.07852705565142,-29.15511818816682,16.920902916858118,6.349903626629485,153.15762413879327,-35.491596506391936,170.07852705565142,-29.15511818816682,2.3117237692948964,1.5348330878413812,0.0,0.0,11,1.177208901138557e-15,1.4643214179293305e-15,5.551115123125783e-14,0.0
0.3732461906799839,170.81815808748965,-27.59234509023113,169.9546952388197,-28.202539685290667,18.118074236636716,7.016946271929445,151.83662100218305,-35.216663145522276,169.9546952388197,-28.202539685290667,0.863462848669938,0.6101945950595346,0.0,0.0,12,1.7778515344813492e-15,1.4101992523167636e-15,5.551115123125783e-14,0.0
0.37635657560231706,166.07188570728286,-25.4562856682844,165.05077616071029,-26.167229904683367,17.919806318477807,6.871795031848745,147.1309698422325,-33.02949287044097,165.05077616071029,-26.167229904683367,1.0211095465725861,0.7109442363989645,0.0,0.0,11,1.0587709856894923e-15,2.0147285643348303e-15,2.220446049250313e-13,0.0
0.3794669605246503,164.94520700600526,-25.498037201533386,163.75364706087578,-26.31521092858849,17.319378282366984,6.605392490828901,146.4342687785088,-32.90231432215457,163.75364706087578,-26.31521092858849,1.1915599451294958,0.8171737270551044,0.0,0.0,11,1.1426561694482387e-15,2.1221770113208855e-15,1.1102230246251565e-13,0.0
0.38257734544698346,163.73988232773922,-25.514322556507423,162.36492511761577,-26.44289702265114,16.73210931965076,6.350655994145459,145.632815797965,-32.770145763742434,162.36492511761577,-26.44289702265114,1.374957210123455,0.9285744661437194,0.0,0.0,11,2.017062474925147e-15,1.3342040644349138e-15,4.440892098500626e-13,0.0
0.38568773036931664,162.31287812421027,-25.590669365571557,160.7413695299258,-26.635543432650284,16.006689041517046,6.02119078926286,144.7346804884088,-32.63205875863282,160.7413695299258,-26.635543432650284,1.571508594284476,1.0448740670787278,0.0,0.0,11,1.0904471574597451e-15,1.5930514549287095e-15,5.551115123125783e-14,0.0
0.38879811529164987,162.07163153787135,-25.218633025073004,160.29014662162888,-26.38446573289008,16.417277701507448,6.089986249703865,143.87286892012142,-32.45819284538734,160.29014662162888,-26.38446573289008,1.7814849162424762,1.1658327078170796,0.0,0.0,11,1.3816212949767072e-15,1.691418736259519e-15,5.551115123125783e-14,0.0
0.39190850021398305,160.6471625186042,-25.22050918676425,158.64194236718413,-26.511748771660457,15.776601053932573,5.790989303684321,142.86534131325155,-32.29201265602873,158.64194236718413,-26.511748771660457,2.0052201514200685,1.2912395848962082,0.0,0.0,11,1.5839701397673986e-15,1.7648209874356271e-15,5.551115123125783e-14,0.0
0.3950188851363163,159.83550401654787,-25.110429553553555,157.59239288137695,-26.53133901830588,15.11352750251514,5.492002636339245,142.47886537886183,-32.02068914018096,157.59239288137695,-26.53133901830588,2.2431111351709156,1.4209094647523228,0.0,0.0,11,1.295943061858488e-15,1.7116644775576358e-15,1.1102230246251565e-13,0.0
0.39812927005864945,156.954221054104,-25.485204271755208,156.1046964042047,-26.058891564453752,15.61941195126535,5.893621114369562,140.48528445293937,-31.94372946172255,156.1046964042047,-26.058891564453752,0.8495246498992959,0.5736872926985438,0.0,0.0,12,1.7316792955173682e-15,1.3699817841144698e-15,2.7755575615628914e-14,0.0
0.40123965498098263,156.38335757915465,-25.14167961946597,155.37589814577203,-25.81146040385036,15.794187771547236,5.900365885167895,139.5817103742248,-31.69956276110289,155.37589814577203,-25.81146040385036,1.007459433382626,0.6697807843843887,0.0,0.0,12,1.4289980635058638e-15,2.4137376359344397e-15,5.551115123125783e-14,0.0
0.40435003990331586,151.9651240499823,-23.51730473294558,150.78553869988127,-24.289149366442636,15.39023441087987,5.715244186195379,135.39530428900142,-29.98931566499657,150.78553869988127,-24.289149366442636,1.1795853501010498,0.7718446334970576,0.0,0.0,11,1.3925673646365605e-15,1.41578393256694e-15,1.1102230246251565e-13,0.0
0.40746042482564904,151.7209762408148,-23.41352566191952,150.35468089078265,-24.293209710100175,14.97749104177413,5.5218857305410225,135.37718984900854,-29.793099974531884,150.35468089078265,-24.293209710100175,1.3662953500321564,0.8796840481806557,0.0,0.0,11,1.0483439846296693e-15,1.8621590667104083e-15,5.551115123125783e-14,0.0
0.41057080974798227,150.63300421034748,-23.492699185438763,149.06495830135026,-24.485827206942975,14.31740153415485,5.2301963263721,134.74755676719545,-29.697861104749112,149.06495830135026,-24.485827206942975,1.568045908997219,0.9931280215042128,0.0,0.0,11,1.2576663109690378e-15,2.4124504496297567e-15,5.551115123125783e-14,0.0
0.41368119467031544,150.12492933571215,-23.313316756774164,148.33957206302304,-24.425342977451706,14.323783558493567,5.187571098896286,134.0157885045295,-29.60315423459512,148.33957206302304,-24.425342977451706,1.7853572726891007,1.1120262206775426,0.0,0.0,11,1.295666774523787e-15,1.5031155767920015e-15,5.551115123125783e-14,0.0
0.4167915795926486,149.53530080018723,-23.207056063233196,147.51648699557282,-24.443301995047026,14.035093297160689,4.997559852644126,133.48139369841215,-29.438380164826818,147.51648699557282,-24.443301995047026,2.0188138046144006,1.2362459318138317,0.0,0.0,11,1.3438098058027294e-15,1.6162351514406713e-15,5.551115123125783e-14,0.0
0.41990196451498185,148.3982935484319,-23.197860896039558,146.1292291129942,-24.563529948619866,13.453577910054495,4.753328050757979,132.6756512029397,-29.305436185736315,146.1292291129942,-24.563529948619866,2.2690644354376928,1.3656690525803072,0.0,0.0,11,1.522795425249009e-15,2.0963731276200138e-15,4.440892098500626e-13,0.0
0.423012349437315,146.6637481673494,-23.480947947651366,145.80225847071023,-24.03543782251004,14.010576372575159,5.149658326405818,131.79168209813508,-29.168061919251834,145.80225847071023,-24.03543782251004,0.8614896966391705,0.5544898748586735,0.0,0.0,12,2.1234353098019148e-15,1.7060892750927632e-15,2.7755575615628914e-14,0.0
0.42612273435964826,146.0114429468938,-23.208426674404375,144.98444103186472,-23.858686262286554,14.266542735376591,5.184954962186181,130.71789829648813,-29.029442127166973,144.98444103186472,-23.858686262286554,1.027001915029089,0.6502595878821783,0.0,0.0,12,1.419419191361e-15,1.4870463072677129e-15,5.551115123125783e-14,0.0
0.42923311928198143,145.09091892861682,-23.11527147370731,143.88201353437188,-23.86804106414795,13.831884682277503,4.987724899432857,130.0501288520944,-28.843275156853128,143.88201353437188,-23.86804106414795,1.2089053942449275,0.7527695904406401,0.0,0.0,12,1.320037191227728e-15,1.4401270577163496e-15,5.551115123125783e-14,0.0
0.43234350420431467,141.33664810622213,-21.784152848680165,139.92879034829207,-22.646061829375643,13.374860890052965,4.790157729533764,126.55392945823911,-27.42820869761052,139.92879034829207,-22.646061829375643,1.4078577579300484,0.8619089806954772,0.0,0.0,11,1.3882513296331643e-15,2.5883528357097443e-15,2.220446049250313e-13,0.0
0.43545388912664784,141.16052840455458,-21.797030955949072,139.5359440623741,-22.774611638126323,12.766114072528358,4.524547394204934,126.76982998984576,-27.298551820886935,139.5359440623741,-22.774611638126323,1.6245843421804593,0.977580682177251,0.0,0.0,11,1.234138830531384e-15,1.9527692800342864e-15,5.551115123125783e-14,0.0
0.438564274048981,140.98244190269838,-21.65593689479934,139.12256279112975,-22.755635461152078,12.847733677041388,4.507422361755993,126.27482911408833,-27.25739267447017,139.12256279112975,-22.755635461152078,1.85987911156864,1.0996985663527408,0.0,0.0,11,1.869665146964908e-15,1.5525118717502837e-15,5.551115123125783e-14,0.0
0.44167465897131425,140.70452241164253,-21.595914928836727,138.5899167554828,-22.82409950962519,12.466243287669432,4.310923699839608,126.12367346781338,-27.121041276953566,138.5899167554828,-22.82409950962519,2.114605656159738,1.2281845807884613,0.0,0.0,11,1.2109664163277447e-15,1.869686470627819e-15,5.551115123125783e-14,0.0
0.4447850438936474,139.8639400364445,-21.627154142651996,137.47424177233032,-22.990120018202248,11.911118899576017,4.080888021516269,125.5631228727543,-27.054640614884452,137.47424177233032,-22.990120018202248,2.3896982641141773,1.3629658755502514,0.0,0.0,11,1.3521961816081342e-15,1.1792652396055013e-15,5.551115123125783e-14,0.0
0.44789542881598066,138.6774036845135,-21.856032550372756,137.77826353402506,-22.407097965234087,12.863216063916129,4.596237923560101,124.9150474701089,-26.988218386007894,137.77826353402506,-22.407097965234087,0.8991401504884545,0.5510654148613306,0.0,0.0,12,1.5692934919639894e-15,2.0964037615419584e-15,2.220446049250313e-13,0.0
0.45100581373831383,137.8231703044515,-21.818445967344662,136.74347011895554,-22.468919791418596,12.555444944168114,4.462298156625501,124.18802517478744,-26.921230988912516,136.74347011895554,-22.468919791418596,1.0797001854959665,0.6504738240739341,0.0,0.0,12,1.4604214428561566e-15,1.0937632431454013e-15,2.220446049250313e-13,0.0
0.454116198660647,138.10011254682738,-21.644116082719577,136.82031460696507,-22.401810845485464,12.41421424946069,4.345321559460579,124.40610035750439,-26.746661612566776,136.82031460696507,-22.401810845485464,1.2797979398623178,0.757694762765888,0.0,0.0,12,1.6563210343618601e-15,1.133890079769785e-15,2.220446049250313e-13,0.0
0.45722658358298024,137.12856848789278,-21.622078754887035,135.62817494337915,-22.49476014098394,11.966965503915626,4.168025916428653,123.66120943946355,-26.654832456075553,135.62817494337915,-22.49476014098394,1.5003935445136192,0.8726813860969044,0.0,0.0,12,1.186804236817542e-15,1.2343900182712913e-15,5.551115123125783e-14,0.0
0.4603369685053134,134.61917795577372,-20.466318924423433,132.8766548724752,-21.461710621992733,11.946156870318758,4.104255558298175,120.93049800215645,-25.55603664370478,132.8766548724752,-21.461710621992733,1.7425230832985206,0.995391697569299,0.0,0.0,11,1.510432715989136e-15,1.676429056454914e-15,5.551115123125783e-14,0.0
0.46344735342764665,134.31752226872248,-20.52304745732476,132.31022225872516,-21.648833067261254,11.539672665836338,3.924655474527381,120.77054959288881,-25.56255028491207,132.31022225872516,-21.648833067261254,2.007300009997333,1.1257856099364925,0.0,0.0,11,1.2307238095221383e-15,1.5155123500732006e-15,1.1102230246251565e-13,0.0
0.4665577383499798,134.30276374846042,-20.51341002848444,132.00684714306587,-21.777231994328222,11.044426804583235,3.7094221652417376,120.96242033848262,-25.472186090690798,132.00684714306587,-21.777231994328222,2.2959166053945435,1.2638219658437815,0.0,0.0,11,1.1573398697455472e-15,1.3681223334980958e-15,1.1102230246251565e-13,0.0
0.46966812327231305,133.70966124312937,-20.580806413012628,131.10001577764365,-21.990261925375307,10.51167478193577,3.4933592595063847,120.58834099570785,-25.474792798816555,131.10001577764365,-21.990261925375307,2.609645465485725,1.4094555123626784,0.0,0.0,11,1.2370363175880629e-15,1.1856011768981514e-15,2.220446049250313e-13,0.0
0.47277850819464623,132.75716479900098,-20.855518244614924,131.79476312750612,-21.417728514768722,11.691868551786039,4.065320764308454,120.1028945757201,-25.482363571771295,131.79476312750612,-21.417728514768722,0.9624016714948624,0.5622102701537968,0.0,0.0,12,1.0822374252080117e-15,1.4587057805864003e-15,1.1102230246251565e-13,0.0
0.4758888931169794,133.48873887928374,-20.69048611731128,132.3227276411334,-21.359607858801088,11.636591589474266,4.00506474689839,120.68613605165918,-25.356277703534957,132.3227276411334,-21.359607858801088,1.1660112381503211,0.6691217414898077,0.0,0.0,12,1.371315714559875e-15,1.3895871512713114e-15,2.220446049250313e-13,0.0
0.47899927803931264,132.7979129765653,-20.729096505573242,131.40446857285568,-21.514370693147047,11.222803759242725,3.8363792536060544,120.18166481361295,-25.337962440579233,131.40446857285568,-21.514370693147047,1.3934444037096096,0.7852741875738043,0.0,0.0,12,2.3086345848179192e-15,1.660500673178007e-15,5.551115123125783e-14,0.0
0.4821096629616458,131.98562023332633,-20.77772332281695,130.3395999405309,-21.688393654762173,10.749481573796267,3.645986988412418,119.59011836673461,-25.320416007639757,130.3395999405309,-21.688393654762173,1.646020292795448,0.910670331945223,0.0,0.0,12,1.3581675864081333e-15,1.7028821238798412e-15,2.220446049250313e-13,0.0
0.48522004788397904,131.04319872613598,-19.783730390457954,129.11805357019026,-20.82903878727951,10.916304336612331,3.6451386814882456,118.20174923357791,-24.466112690933528,129.11805357019026,-20.82903878727951,1.9251451559457387,1.0453083968215575,0.0,0.0,11,1.7952416320333746e-15,1.0385267855767091e-15,5.551115123125783e-14,0.0
0.4883304328063122,131.2018853781111,-19.80638803549039,128.96957137549182,-20.99556687179558,10.451984858438193,3.445151274387011,118.51758651705366,-24.43480152955511,128.96957137549182,-20.99556687179558,2.232314002619248,1.1891788363051918,0.0,0.0,11,1.1522228260568688e-15,1.8085001328429913e-15,2.220446049250313e-13,0.0
0.4914408177286454,130.7630884725327,-19.898648125816663,128.19397626339136,-21.24090911872975,9.994692436206709,3.260637344305141,118.19928382718464,-24.498499154177605,128.19397626339136,-21.24090911872975,2.5691122091413354,1.3422609929130875,0.0,0.0,11,1.8370046862904e-15,1.2394593858149392e-15,5.551115123125783e-14,0.0
0.4945512026509786,130.26833324244424,-19.915494981551834,127.33111615402677,-21.42001465605297,9.74939747612596,3.133830115853583,117.58171867790082,-24.54728997860206,127.33111615402677,-21.42001465605297,2.9372170884174644,1.5045196745011375,0.0,0.0,11,1.6896992169890045e-15,1.7247892982658269e-15,1.1102230246251565e-13,0.0
0.4976615875733118,129.99169749455734,-20.203883386651796,128.94055176854903,-20.791047218242166,11.046860904038699,3.734083819540557,117.89369086451033,-24.511945773543953,128.94055176854903,-20.791047218242166,1.051145726008313,0.5871638315903696,0.0,0.0,12,1.6953425697606436e-15,2.391447994619276e-15,1.1102230246251565e-13,0.0
0.500771972495645,130.44662539735586,-20.22467509406087,129.16005503616557,-20.930260184426597,10.725316656388918,3.605614587782134,118.43473837977666,-24.52255961009243,129.16005503616557,-20.930260184426597,1.286570361190276,0.7055850903657258,0.0,0.0,12,1.4426893308611075e-15,1.2226669720976347e-15,1.1102230246251565e-13,0.0
0.5038823574179783,130.61127777363293,-20.24696450806967,129.0598043418583,-21.08207577591218,10.28558552138194,3.4295635164387344,118.77421882047638,-24.50164862449075,129.0598043418583,-21.08207577591218,1.5514734317746317,0.8351112678425096,0.0,0.0,12,1.25084935989655e-15,1.031198228366882e-15,5.551115123125783e-14,0.0
0.5069927423403114,130.73396685101076,-20.142638725652354,128.88636537365258,-21.11842038942131,10.362417059821185,3.3951296545569996,118.52394831383138,-24.511551666392428,128.88636537365258,-21.11842038942131,1.8476014773581826,0.9757816637689565,0.0,0.0,12,1.3730055942541788e-15,1.2689008021803455e-15,1.1102230246251565e-13,0.0
0.5101031272626446,129.6753446538491,-19.44788474711917,127.49854421956374,-20.57550491031777,10.037849200306438,3.2604164842322447,117.4606950192573,-23.83023155136428,127.49854421956374,-20.57550491031777,2.176800434285355,1.1276201631985996,0.0,0.0,11,1.1474147679511732e-15,1.441239205006882e-15,5.551115123125783e-14,0.0
0.5132135121849778,129.3631281015314,-19.616173357013697,126.822111063988,-20.9068047816513,9.510978029495273,3.05626191782845,117.31113303449274,-23.951791071268417,126.822111063988,-20.9068047816513,2.5410170375434116,1.290631424637603,0.0,0.0,11,1.2060945051907373e-15,1.3441474899489745e-15,1.1102230246251565e-13,0.0
0.516323897107311,129.39946506925156,-19.64354685140885,126.45716496635404,-21.108343822982253,9.382449967671462,2.9671798672899112,117.07471499868258,-24.065398285221583,126.45716496635404,-21.108343822982253,2.9423001028975233,1.4647969715734022,0.0,0.0,11,1.5298009530549922e-15,1.6171146637738196e-15,5.551115123125783e-14,0.0
0.5194342820296443,130.30962073197082,-19.625263737661776,126.9268190602305,-21.275334926726398,8.913708831681335,2.772978659125319,118.01311022854915,-24.034095188215947,126.9268190602305,-21.275334926726398,3.3828016717403315,1.6500711890646218,0.0,0.0,11,9.41715719420004e-16,1.5373603421710901e-15,1.1102230246251565e-13,0.0
0.5225446669519774,129.6053338031683,-20.12302879512344,128.44047066949733,-20.748668672838715,10.333856832057133,3.422198107260602,118.10661383744018,-24.161228580020698,128.44047066949733,-20.748668672838715,1.1648631336709685,0.625639877715276,0.0,0.0,12,1.1697555498941894e-15,1.2137284598090416e-15,8.326672684688674e-14,0.0
0.5256550518743106,130.14993394680317,-20.15527616192966,128.70824908640955,-20.91520072884188,10.053402170152903,3.3093243176997005,118.65484691625666,-24.22373626146239,128.70824908640955,-20.91520072884188,1.4416848603936148,0.7599245669122221,0.0,0.0,12,1.5580717429155066e-15,1.0089370410442003e-15,1.1102230246251565e-13,0.0
0.5287654367966438,130.27900857871725,-20.16425066933449,128.52376745047883,-21.07196619025166,9.866150987905918,3.204512064999232,118.65761646257292,-24.267638440808398,128.52376745047883,-21.07196619025166,1.7552411282384224,0.9077155209171713,0.0,0.0,12,1.5406146710260203e-15,1.6685394825108873e-15,5.551115123125783e-14,0.0
0.531875821718977,130.93543879928356,-20.079074110176357,128.82766326489374,-21.148148076009132,9.75219268514305,3.130712715542866,119.0754705797507,-24.266694203902553,128.82766326489374,-21.148148076009132,2.1077755343898206,1.0690739658327768,0.0,0.0,12,1.3267376494573126e-15,1.6976416377675834e-15,2.220446049250313e-13,0.0
0.5349862066413102,129.66748298959197,-19.7593025427137,127.16584138747255,-21.00333478956187,9.427403890323033,2.9948268135334044,117.7384374971495,-23.98489824450941,127.16584138747255,-21.00333478956187,2.501641602119416,1.2440322468481666,0.0,0.0,11,1.2311496905160872e-15,1.2366318540765139e-15,1.1102230246251565e-13,0.0
0.5380965915636434,130.43074748533442,-19.827868920639048,127.49144417431893,-21.260458252690853,8.963028162268152,2.8082898873287307,118.5284160120508,-24.051181190679515,127.49144417431893,-21.260458252690853,2.9393033110154865,1.4325893320518064,0.0,0.0,11,1.2338816163316599e-15,1.5700165583094333e-15,5.551115123125783e-14,0.0
0.5412069764859766,131.85760358796728,-19.822589202820073,128.434268204158,-21.457295427922197,8.830206477334546,2.7111479052153804,119.60406172682345,-24.15963782906186,128.434268204158,-21.457295427922197,3.4233353838092775,1.6347062251021263,0.0,0.0,11,1.439606364535615e-15,1.4453148735623926e-15,1.1102230246251565e-13,0.0
0.5443173614083098,132.6858252969418,-19.870430200447597,128.72940198772002,-21.7207314952989,8.370447686754535,2.5306666478094497,120.35895430096548,-24.251242930232547,128.72940198772002,-21.7207314952989,3.9564233092217695,1.8503012948513018,0.0,0.0,11,1.261247843586049e-15,1.2163266496035337e-15,5.551115123125783e-14,0.0
0.547427746330643,131.59509578878723,-20.452356222583987,130.2928253549996,-21.130149301354518,10.108670603908614,3.2852675807075586,120.18415475109097,-24.408090638174233,130.2928253549996,-21.130149301354518,1.302270433787628,0.6777930787705321,0.0,0.0,12,1.79359847237207e-15,1.8905532263186407e-15,2.220446049250313e-13,0.0
0.5505381312529762,132.72420369192153,-20.34535624610069,131.09350414215632,-21.178160311866023,9.960435485195527,3.2098260501482097,121.1330686569608,-24.371091931221073,131.09350414215632,-21.178160311866023,1.6306995497652057,0.8328040657653332,0.0,0.0,12,1.4116702090014854e-15,1.1486016671965444e-15,5.551115123125783e-14,0.0
0.5536485161753094,132.84740291751783,-20.370544016705917,130.84249550443192,-21.374925402053407,9.849416097197793,3.13553798717746,120.99307940723412,-24.493931204105134,130.84249550443192,-21.374925402053407,2.004907413085894,1.0043813853474906,0.0,0.0,12,1.0156216571996667e-15,1.870780446996257e-15,2.220446049250313e-13,0.0
0.5567589010976426,131.56045121824945,-20.02455415193498,129.13276152656096,-21.21714323501009,9.50863498763844,2.992164431829255,119.62412653892251,-24.19516364480757,129.13276152656096,-21.21714323501009,2.4276896916884856,1.192589083075114,0.0,0.0,11,1.2281894976104376e-15,1.7224046752408172e-15,1.1102230246251565e-13,0.0
0.5598692860199758,133.7916200440868,-20.10919847551007,130.88966323144038,-21.506644055315917,9.14542209156524,2.842841603323434,121.74424113987514,-24.335709760676096,130.88966323144038,-21.506644055315917,2.9019568126464335,1.3974455798058454,0.0,0.0,11,1.4078198112905154e-15,1.3360292167804785e-15,1.1102230246251565e-13,0.0
0.5629796709423089,135.4253686343672,-20.11885009779895,131.99463582732471,-21.73776856508011,8.950517134647276,2.723390373618024,123.04411869267744,-24.45966100675026,131.99463582732471,-21.73776856508011,3.4307328070424954,1.6189184672811585,0.0,0.0,11,1.1823984372509678e-15,1.9128223276433496e-15,1.1102230246251565e-13,0.0
0.5660900558646422,135.64306036730574,-20.28078833143814,131.62590659650547,-22.13770758414734,8.49093184860844,2.5517927568797463,123.13497474789702,-24.68061455935975,131.62590659650547,-22.13770758414734,4.017153770800256,1.8569192527092013,0.0,0.0,11,1.2569140349266933e-15,1.7576005242327293e-15,5.551115123125783e-14,0.0
0.5692004407869754,135.73488637246012,-20.42260992001804,131.0704204512855,-22.533907988279164,8.048036550513826,2.385897924571201,123.02238390077166,-24.90625784290614,131.0704204512855,-22.533907988279164,4.66446592117465,2.111298068261123,0.0,0.0,11,1.6141586129858102e-15,1.7604446610847374e-15,1.1102230246251565e-13,0.0
0.5723108257093086,136.01621011365455,-20.89985678585981,134.55528587101858,-21.64396813378437,10.276088007567589,3.286098435230956,124.27919786345097,-24.908229822641317,134.55528587101858,-21.64396813378437,1.4609242426359623,0.7441113479245586,0.0,0.0,12,1.3051237593672954e-15,1.530405741791356e-15,1.1102230246251565e-13,0.0
0.5754212106316418,136.3629867410597,-20.776959481378757,134.51166496743164,-21.702280695827156,9.974540718714167,3.1782780785271556,124.53712424871748,-24.858650587062137,134.51166496743164,-21.702280695827156,1.8513217736280505,0.9253212144483999,0.0,0.0,11,1.2999732937653716e-15,1.2751513908264826e-15,1.6653345369377348e-13,0.0
0.578531595553975,137.39037078089802,-20.8779220423324,135.09196205678052,-22.004870854976485,9.9416098117691,3.1185350662953413,125.1503522450114,-25.110204064067723,135.09196205678052,-22.004870854976485,2.2984087241175133,1.1269488126440843,0.0,0.0,11,1.3942185679135052e-15,2.2686012796751293e-15,1.1102230246251565e-13,0.0
0.5816419804763082,138.40677011306525,-20.913000392546234,135.60121766778542,-22.26203491296171,9.598507365594402,2.9723371693242315,126.00271030219102,-25.226060399418497,135.60121766778542,-22.26203491296171,2.805552445279821,1.3490345204154741,0.0,0.0,11,1.2406491138299983e-15,1.5712456623278702e-15,2.220446049250313e-13,0.0
0.5847523653986414,140.193430623821,-20.880003072096017,136.81720124279795,-22.4715557507414,9.437684266731402,2.8702161569250286,127.37951697606654,-25.335560056344868,136.81720124279795,-22.4715557507414,3.376229381023065,1.5915526786453802,0.0,0.0,11,1.2249865142264744e-15,1.4453285411513125e-15,1.1102230246251565e-13,0.0
0.5878627503209746,140.56375914720275,-20.964767930878292,136.5497378041983,-22.819173736625125,9.113297574296055,2.7373023748807066,127.43644022990222,-25.540738342433713,136.5497378041983,-22.819173736625125,4.014021343004455,1.854405805746834,0.0,0.0,11,1.4790979598339494e-15,1.0998327780699355e-15,1.1102230246251565e-13,0.0
0.5909731352433077,140.0943000915419,-21.061021740288353,135.3716888212155,-23.19844058291721,8.613508424150176,2.5510666556589063,126.75818039706532,-25.729889922123398,135.3716888212155,-23.19844058291721,4.722611270326377,2.137418842628856,0.0,0.0,11,1.224254733431371e-15,9.088286379893443e-16,1.1102230246251565e-13,0.0
0.594083520165641,142.06276969277266,-20.660555308626698,136.556991233485,-23.10088876078699,8.229046896717108,2.3917931213641657,128.3279443367679,-25.465597428615474,136.556991233485,-23.10088876078699,5.505778459287666,2.4403334521602926,0.0,0.0,10,1.1938387223857283e-15,1.245134254353412e-15,1.1102230246251565e-13,0.0
0.5971939050879742,142.23503163027434,-21.55726215073228,140.59811084155,-22.38247173158059,10.612949060314799,3.371837938604072,129.9851617812352,-25.72873569696076,140.59811084155,-22.38247173158059,1.636920788724316,0.8252095808483095,0.0,0.0,11,1.4338857680848673e-15,1.6985488468061722e-15,1.1102230246251565e-13,0.0
0.6003042900103074,143.01909390577833,-21.614268632877856,140.92007886583335,-22.652967736464934,10.67434776886847,3.3595249749813316,130.24573109696487,-25.997704106836075,140.92007886583335,-22.652967736464934,2.0990150399449874,1.0386991035870763,0.0,0.0,11,1.2086126375867422e-15,2.8972918524851413e-15,1.1102230246251565e-13,0.0
0.6034146749326406,145.38974004214163,-21.581110643965378,142.7592659155886,-22.85848518711148,10.367514369337913,3.2267146267877043,132.39175154625067,-26.078767576965454,142.7592659155886,-22.85848518711148,2.6304741265530174,1.2773745431461019,0.0,0.0,11,1.031507444731111e-15,2.1203022192226326e-15,2.220446049250313e-13,0.0
0.6065250598549737,146.33959075152663,-21.613574027210156,143.10439276040785,-23.154789132205607,10.247686306758958,3.138666781651577,132.85670645364888,-26.28270561787512,143.10439276040785,-23.154789132205607,3.235197991118783,1.5412151049954503,0.0,0.0,11,1.5440839187779396e-15,9.690820042013937e-16,1.1102230246251565e-13,0.0
0.609635444777307,145.94019202992786,-21.687128499949853,142.023017398876,-23.51723837380493,9.875609615743826,2.9885354096245953,132.14740778313214,-26.48411243021828,142.023017398876,-23.51723837380493,3.917174631051869,1.830109873855074,0.0,0.0,11,1.3899342566607286e-15,1.9703383120148473e-15,1.1102230246251565e-13,0.0
0.6127458296996402,146.968723174947,-21.843123759069435,142.28825013247783,-23.986975507644146,9.478291049045692,2.8290140232410765,132.80995908343215,-26.79173973044026,142.28825013247783,-23.986975507644146,4.680473042469177,2.1438517485747095,0.0,0.0,11,1.1986043344787529e-15,1.4287371367522034e-15,1.1102230246251565e-13,0.0
0.6158562146219734,150.66630032235824,-21.51368573005713,145.13706475651477,-23.995817261219383,9.121248893623301,2.6719786052990298,136.0158158628915,-26.634645368481124,145.13706475651477,-23.995817261219383,5.529235565843463,2.482131531162254,0.0,0.0,10,1.275753299856024e-15,1.7017279226970625e-15,5.551115123125783e-14,0.0
0.6189665995443066,151.4548982199496,-21.65076965883774,144.98722858887822,-24.49530185981516,8.556452502233515,2.4643187105696307,136.4307760866447,-26.930933994619316,144.98722858887822,-24.49530185981516,6.467669631071369,2.8445322009774214,0.0,0.0,10,1.1700719381820838e-15,2.183506832723885e-15,2.220446049250313e-13,0.0
0.6220769844666397,150.12281712244575,-22.62824087410613,148.29806903484032,-23.54974537285155,11.708470096215473,3.6976937994422725,136.58959893862485,-27.22998201689783,148.29806903484032,-23.54974537285155,1.8247480876054332,0.9215044987454216,0.0,0.0,11,1.3032737942026301e-15,1.2773939387343144e-15,1.1102230246251565e-13,0.0
0.625187369388973,153.10911055421946,-22.47880092307466,150.7425289247051,-23.652599954621095,11.62550064371909,3.650939237448018,139.117028280986,-27.29333119189398,150.7425289247051,-23.652599954621095,2.3665816295143327,1.173799031546434,0.0,0.0,11,1.293441913977287e-15,1.5644456361883095e-15,1.1102230246251565e-13,0.0
0.6282977543113062,152.49337548644215,-22.591145338796846,149.50150394384795,-24.048194663536783,11.262932453986052,3.5105473024912492,138.23857148986193,-27.550700110813562,149.50150394384795,-24.048194663536783,2.991871542594204,1.4570493247399372,0.0,0.0,11,1.3793802716671969e-15,1.2238148186455698e-15,2.220446049250313e-13,0.0
0.6314081392336394,153.90314827261625,-22.362896081561836,150.19821669330352,-24.134016179711328,11.175539567023378,3.4279184614532467,139.02267712628014,-27.536638769933123,150.19821669330352,-24.134016179711328,3.70493157931272,1.771120098149491,0.0,0.0,10,1.1408406712402655e-15,1.3958176243725589e-15,1.1102230246251565e-13,0.0
0.6345185241559725,156.05986736794418,-22.404259766644273,151.54974390383438,-24.52001839777659,10.781870526802697,3.26503771238618,140.76787337703166,-27.75314672745639,151.54974390383438,-24.52001839777659,4.51012346410979,2.1157586311323153,0.0,0.0,10,1.2904664113392461e-15,1.1022281627606916e-15,2.220446049250313e-13,0.0
0.6376289090783057,158.46773413592953,-22.590251405794056,153.05588800857248,-25.080840303716347,10.320526274228001,3.0799105970642655,142.73536173434448,-28.13056615407464,153.05588800857248,-25.080840303716347,5.411846127357049,2.490588897922292,0.0,0.0,10,1.4141902005962477e-15,1.4807913413130127e-15,2.220446049250313e-13,0.0
0.640739294000639,160.39053873248866,-22.538685014072623,153.97601438248418,-25.43379103106783,9.989859120356115,2.92371871693443,143.98615526212808,-28.318746721983715,153.97601438248418,-25.43379103106783,6.4145243500044735,2.895106016995208,0.0,0.0,10,1.2964128046513613e-15,1.6354196075643209e-15,2.220446049250313e-13,0.0
0.6438496789229722,160.97744362854095,-22.68740152727856,153.4548467937452,-26.016072576682692,9.344079657665228,2.6889146189958053,144.11076713607997,-28.67492324298834,153.4548467937452,-26.016072576682692,7.522596834795765,3.3286710494041327,0.0,0.0,10,1.0967638168366853e-15,1.3914421168079625e-15,2.220446049250313e-13,0.0
0.6469600638453054,162.17876235453843,-23.569740174019362,160.16142415820514,-24.602517559235746,13.110700474850688,4.159305067843522,147.05072368335442,-28.738371495152872,160.16142415820514,-24.602517559235746,2.0173381963332844,1.0327773852163842,0.0,0.0,11,1.6237176539947998e-15,1.4840718518754065e-15,2.220446049250313e-13,1.734723475976807e-18
0.6500704487676385,161.58281679600873,-23.37154323040131,158.9387680062291,-24.70199773392853,13.031367164612526,4.120202100233342,145.90740084161658,-28.8185515695927,158.9387680062291,-24.70199773392853,2.6440487897796143,1.3304545035272186,0.0,0.0,10,1.182040434920306e-15,1.010048453591428e-15,2.220446049250313e-13,0.0
0.6531808336899717,162.93162284035012,-23.642688088269942,159.5625374622617,-25.308541981968446,12.659477489943862,3.9818571823244255,146.90305997231783,-29.27444626992994,159.5625374622617,-25.308541981968446,3.3690853780884216,1.6658538936985023,0.0,0.0,10,1.346709617390955e-15,1.5962516339008704e-15,1.1102230246251565e-13,0.0
0.656291218612305,168.0327011690716,-23.464917655851018,163.83573610730983,-25.5035686657928,12.62466212182887,3.902747798349477,151.21107398548097,-29.370939864856215,163.83573610730983,-25.5035686657928,4.196965061761786,2.0386510099417814,0.0,0.0,10,1.5503466550426644e-15,1.509487405581998e-15,2.220446049250313e-13,0.0
0.6594016035346382,169.0612238141071,-23.63080455783604,163.92903099948776,-26.07917884254935,12.218697164065587,3.728808692105155,151.71033383542218,-29.768421471927972,163.92903099948776,-26.07917884254935,5.132192814619332,2.44837428471331,0.0,0.0,10,1.7923601745871967e-15,1.3677376779312163e-15,1.1102230246251565e-13,0.0
0.6625119884569713,170.8731290599857,-23.594381985334458,164.69388179098777,-26.488782096392946,11.84987183083746,3.552363373812983,152.84400996015032,-29.98695182842153,164.69388179098777,-26.488782096392946,6.17924726899793,2.8944001110584887,0.0,0.0,10,1.8072564461777874e-15,1.0193014649566148e-15,2.220446049250313e-13,0.0
0.6656223733793045,171.79103699747864,-23.65015409411958,164.44847095110296,-27.026102415763596,11.404753809442218,3.3634034620975157,153.04371714166072,-30.342869641382663,164.44847095110296,-27.026102415763596,7.342566046375674,3.375948321644017,0.0,0.0,10,1.187958306585795e-15,1.242268990555555e-15,2.220446049250313e-13,0.0
0.6687327583016378,172.53282994493125,-23.401539614103147,163.90629927435145,-27.293617812907357,10.656731328729274,3.093528042746955,153.2495679456222,-30.35156054869047,163.90629927435145,-27.293617812907357,8.626530670579792,3.89207819880421,0.0,0.0,9,1.2053075069461446e-15,1.0062887037014715e-15,2.220446049250313e-13,0.0
0.671843143223971,173.59549739840296,-24.613689704570653,171.3891579242194,-25.77136488153655,15.058759017091887,4.83702970093004,156.33039890712752,-30.579996065249173,171.3891579242194,-25.77136488153655,2.206339474183562,1.1576751769658966,0.0,0.0,10,1.3350485189740404e-15,1.0471203106204984e-15,2.220446049250313e-13,0.0
0.6749535281463042,174.8960052693792,-24.715505949296947,171.97706031823537,-26.22220370548822,14.994184948581074,4.810585460618496,156.98287536965427,-31.02705035578578,171.97706031823537,-26.22220370548822,2.918944951143841,1.5066977561912722,0.0,0.0,10,1.6446064298104187e-15,1.6056715691684192e-15,1.1102230246251565e-13,0.0
0.6780639130686373,178.71336542714343,-24.698006669097904,174.96876576042774,-26.599059055554363,15.058483269878725,4.768320894945758,159.91028249054904,-31.345135568020808,174.96876576042774,-26.599059055554363,3.744599666715684,1.9010523864564592,0.0,0.0,10,1.1354199941086034e-15,1.5254140810927543e-15,4.440892098500626e-13,0.0
0.6811742979909705,181.5640246454291,-24.686432224690343,176.8762989257166,-27.0265563833675,14.669918190815032,4.598716844020057,162.2063807349016,-31.584820830104245,176.8762989257166,-27.0265563833675,4.687725719712493,2.3401241586771566,0.0,0.0,10,1.3335143211736304e-15,1.0774721372913413e-15,2.220446049250313e-13,0.0
0.6842846829133038,182.3382925415459,-24.856358734804473,176.58563656306566,-27.679479756275924,14.229630147684897,4.409009579324731,162.35600641538076,-32.04413703264169,176.58563656306566,-27.679479756275924,5.752655978480255,2.823121021471451,0.0,0.0,10,1.440790694801102e-15,1.2753298344268795e-15,2.220446049250313e-13,0.0
0.687395067835637,183.84985004098326,-24.547285559445562,176.90623256130237,-27.896355956654318,13.818082716147494,4.206756082672592,163.08814984515487,-32.03776727605475,176.90623256130237,-27.896355956654318,6.943617479680879,3.349070397208757,0.0,0.0,9,1.3957656313231246e-15,1.3604043046820952e-15,2.220446049250313e-13,0.0
0.6905054527579702,185.79382959261574,-24.405619366032017,177.52911495031847,-28.322435846736965,13.41456767031899,4.021697190410928,164.1145472799995,-32.288717138393984,177.52911495031847,-28.322435846736965,8.264714642297267,3.9168164807049495,0.0,0.0,9,1.9496139827144233e-15,1.5525433190549931e-15,2.220446049250313e-13,0.0
0.6936158376803033,187.80470862386466,-24.650052783400753,178.08479627051264,-29.175071032068065,12.544514039543397,3.708006802015454,165.54028223096924,-32.83815971114678,178.08479627051264,-29.175071032068065,9.719912353352,4.525018248667312,0.0,0.0,9,1.2930254021349882e-15,1.6281505427767183e-15,2.220446049250313e-13,0.0
0.6967262226026365,188.05700681044152,-25.996348448596226,185.67440926453,-27.289594588403055,17.613075577335763,5.767322502294916,168.06133368719426,-33.015313691673086,185.67440926453,-27.289594588403055,2.3825975459115183,1.29324613980683,0.0,0.0,10,1.5099166553619368e-15,1.594659932965994e-15,4.440892098500626e-13,0.0
0.6998366075249698,189.1465583848909,-26.077653650452497,185.9695575814439,-27.775685367972418,17.54057676913051,5.75042901486141,168.4289808123134,-33.506793902193145,185.9695575814439,-27.775685367972418,3.177000803447018,1.6980317175199195,0.0,0.0,10,1.336325398162946e-15,1.4844900317953206e-15,1.1102230246251565e-13,0.0
0.702946992447303,192.85681391224122,-25.71677156414312,188.75893032360196,-27.873020462645663,17.748918786895278,5.7230143288677855,171.01001153670666,-33.58650052296718,188.75893032360196,-27.873020462645663,4.097883588639256,2.156248898502544,0.0,0.0,9,1.1034165159210834e-15,1.487232732225957e-15,2.220446049250313e-13,0.0
0.7060573773696361,196.01078743676038,-25.692960523985864,190.86157665676174,-28.359824772195644,17.30894149198426,5.535111812745786,173.55263516477748,-33.859979581062134,190.86157665676174,-28.359824772195644,5.149210779998652,2.66686424820978,0.0,0.0,9,1.0735087794351135e-15,1.2950707063123863e-15,2.220446049250313e-13,0.0
0.7091677622919693,196.72886202629445,-25.87791802603624,190.39409060867314,-29.10655732112192,16.83627408992574,5.332080931581473,173.55781651874742,-34.395092344392225,190.39409060867314,-29.10655732112192,6.334771417621305,3.2286392950856766,0.0,0.0,9,1.4035010931907574e-15,1.582932580731752e-15,2.220446049250313e-13,0.0
0.7122781472143025,197.7569327938709,-25.558792932399335,190.09877123864024,-29.39892259402778,16.832148707195472,5.23305092842031,173.2666225314448,-34.565439201373174,190.09877123864024,-29.39892259402778,7.658161555230654,3.8401296616284437,0.0,0.0,9,1.5902804494283983e-15,1.1984857315867032e-15,2.220446049250313e-13,0.0
0.7153885321366358,202.53765905456873,-25.552711596124684,193.41489174871447,-30.05239663869089,16.160151488985008,4.959785053216402,177.2547402597295,-34.94981005876673,193.41489174871447,-30.05239663869089,9.122767305854282,4.499685042566207,0.0,0.0,9,1.0946377211302144e-15,1.608963344784506e-15,4.440892098500626e-13,0.0
0.718498917058969,206.3103132160014,-25.243792106100564,195.57856506676617,-30.449242152112863,15.8861522324779,4.787236823505374,179.6924128342883,-35.16018951720746,195.57856506676617,-30.449242152112863,10.731748149235221,5.205450046012297,0.0,0.0,9,1.2752343197882203e-15,1.2700802418574908e-15,4.440892098500626e-13,0.0
0.7216093019813021,203.6010506583058,-27.309221033213202,201.0642476729187,-28.743857264597185,20.752818533642294,6.966828502136094,180.3114291392764,-35.64749484304765,201.0642476729187,-28.743857264597185,2.536802985387108,1.4346362313839849,0.0,0.0,10,1.4349177879411192e-15,1.5374407041334866e-15,4.440892098500626e-13,1.734723475976807e-18
0.7247196869036353,203.02845199730962,-26.82135090133579,199.6252116731417,-28.718311972184555,21.31547881670538,7.123957525567182,178.30973285643637,-35.80754708422987,199.6252116731417,-28.718311972184555,3.403240324167902,1.8969610708487652,0.0,0.0,9,1.216113465302244e-15,1.3260744655890857e-15,2.220446049250313e-13,0.0
0.7278300718259685,208.26116359569707,-26.67615514290816,203.85410903612288,-29.096887143372463,20.967361726556838,6.942457798650029,182.88674730956603,-36.015493142710724,203.85410903612288,-29.096887143372463,4.407054559574187,2.4207320004643007,0.0,0.0,9,1.4689563236216667e-15,1.440178867949516e-15,4.440892098500626e-13,0.0
0.7309404567483018,210.03206025923322,-26.912895836709836,204.48068903140114,-29.917245181094412,20.3407851896878,6.68210612453799,184.13990384171336,-36.58869199223348,204.48068903140114,-29.917245181094412,5.551371227832066,3.0043493443845737,0.0,0.0,9,1.81137775703739e-15,1.0390141318500356e-15,4.440892098500626e-13,0.0
0.734050841670635,213.4429446084649,-26.6759764358737,206.60388937999707,-30.321963175614385,20.560838979856722,6.6381692047011445,186.04305040014034,-36.91652274248285,206.60388937999707,-30.321963175614385,6.839055228467841,3.6459867397406844,0.0,0.0,9,1.632476504802069e-15,1.57295574931404e-15,2.220446049250313e-13,0.0
0.7371612265929681,217.8531998726004,-26.530766101343158,209.58050437947597,-30.874359776378896,20.078726397689735,6.425086360966639,189.50177798178623,-37.24405009511514,209.58050437947597,-30.874359776378896,8.272695493124436,4.343593675035737,0.0,0.0,9,1.0946426950923696e-15,2.05321768817496e-15,2.220446049250313e-13,0.0
0.7402716115153013,221.33270923356625,-26.294160688857573,211.4781189612564,-31.389059677961537,19.714226797189003,6.205064940866908,191.76389216406739,-37.50597753163388,211.4781189612564,-31.389059677961537,9.854590272309839,5.094898989103964,0.0,0.0,9,1.0166528543650178e-15,1.3428084085039475e-15,2.220446049250313e-13,0.0
0.7433819964376345,222.523508119084,-25.798841545743727,210.9367750117494,-31.696256874332576,19.263005815823178,5.987380387377733,191.67376919592624,-37.601463120691086,210.9367750117494,-31.696256874332576,11.586733107334604,5.897415328588848,0.0,0.0,8,1.3024058006900888e-15,1.9160770752282777e-15,2.220446049250313e-13,0.0
0.7464923813599678,219.18799870568554,-28.28435571460948,216.5277608530875,-29.8594266005931,24.373090276746925,8.426212615378006,192.15467057634055,-38.21181467511821,216.5277608530875,-29.8594266005931,2.660237852598048,1.5750708859836196,0.0,0.0,9,1.6571716885125349e-15,1.54949428414114e-15,2.220446049250313e-13,0.0
0.7496027662823009,221.97619799557523,-27.730003306475062,218.39284723864145,-29.823006323477678,25.271254421001466,8.692910664120069,193.12159281764,-38.434562050960594,218.39284723864145,-29.823006323477678,3.583350756933783,2.093003017002615,0.0,0.0,9,1.4867388863012073e-15,2.559507314943769e-15,2.220446049250313e-13,0.0
0.7527131512046341,225.36486531210176,-27.861871887508297,220.71381548948864,-30.541418990640903,24.782223935216578,8.465078059346848,195.93159155427207,-38.94625155895142,220.71381548948864,-30.541418990640903,4.651049822613119,2.6795471031326055,0.0,0.0,9,1.4270288445956832e-15,2.2407580515944805e-15,2.220446049250313e-13,0.0
0.7558235361269673,226.82259387289488,-28.128339425362388,220.95731699486893,-31.460728250806206,23.999502526626053,8.137103003542796,196.95781446824293,-39.56391775696727,220.95731699486893,-31.460728250806206,5.865276878025946,3.332388825443819,0.0,0.0,9,1.681814590278583e-15,1.5664709762782353e-15,2.220446049250313e-13,0.0
0.7589339210493006,233.2096681699699,-27.497644704927016,225.98202485752554,-31.54662158559997,24.47392185777172,8.12054634149984,201.50810299975382,-39.66585386925851,225.98202485752554,-31.54662158559997,7.227643312444339,4.048976880672952,0.0,0.0,9,1.4897489186536905e-15,2.095797839316673e-15,2.220446049250313e-13,0.0
0.7620443059716338,234.99602464434267,-27.563982257502207,226.25660564891814,-32.39051194395526,23.899076372414196,7.888319514794228,202.35752927650395,-40.24829143527481,226.25660564891814,-32.39051194395526,8.739418995424542,4.8265296864530525,0.0,0.0,9,9.653101111483378e-16,1.1110084724907058e-15,4.440892098500626e-13,0.0
0.7651546908939669,237.44622788647231,-26.770995104599844,227.04470568896517,-32.43303818172008,23.66326971170234,7.67816106727782,203.38143597726284,-40.04021921756986,227.04470568896517,-32.43303818172008,10.401522197507148,5.662043077120234,0.0,0.0,8,1.0633977366489345e-15,2.182849547676108e-15,2.220446049250313e-13,0.0
0.7682650758163001,236.51691924675316,-26.894140179904618,224.30240868240244,-33.44643914567257,23.208188403522886,7.461870877088174,201.09422027887956,-40.83064100097232,224.30240868240244,-33.44643914567257,12.214510564350725,6.552298965767952,0.0,0.0,8,1.4259446451916589e-15,2.7772707461814574e-15,2.220446049250313e-13,0.0
0.7713754607386333,235.3744916539536,-29.53067316818416,232.62895583664147,-31.236880556943813,28.401324822681545,10.128135371070906,204.22763101395992,-41.28463270350287,232.62895583664147,-31.236880556943813,2.7455358173121587,1.7062073887596538,0.0,0.0,9,1.1870322763707074e-15,1.0385777048477925e-15,2.220446049250313e-13,1.734723475976807e-18
0.7744858456609666,241.57500466267194,-28.718250941570865,237.8698502437987,-30.99158179046583,29.625914676601553,10.511573322315467,208.24393556719716,-41.40086300583588,237.8698502437987,-30.99158179046583,3.7051544188732257,2.273330848894963,0.0,0.0,9,1.025296856265058e-15,1.109765617097271e-15,2.220446049250313e-13,0.0
0.7775962305832997,243.49063419073366,-28.903224444491766,238.67862933364813,-31.81775409524442,28.985119056372405,10.232442127149284,209.69351027727572,-41.957647958012124,238.67862933364813,-31.81775409524442,4.812004857085529,2.9145296507526544,0.0,0.0,9,1.2349096218549203e-15,1.611765488798122e-15,4.440892098500626e-13,0.0
0.7807066155056329,244.71136674556618,-29.197424874802635,238.6447682826489,-32.82408046899972,28.003708498501076,9.833228064125862,210.64105978414787,-42.57858024491289,238.6447682826489,-32.82408046899972,6.066598462917297,3.6266555941970835,0.0,0.0,9,1.202342065096228e-15,1.739564693946658e-15,4.440892098500626e-13,0.0
0.7838170004279661,251.33218649477917,-28.40960077393171,243.8631129463105,-32.81593071824554,28.771672267702108,9.895253618819392,215.09144067860842,-42.64684613716344,243.8631129463105,-32.81593071824554,7.469073548468653,4.4063299443138275,0.0,0.0,9,2.3501631222962756e-15,1.85562799768241e-15,2.220446049250313e-13,0.0
0.7869273853502993,251.67344562201328,-27.85607140944566,242.65425508762485,-33.10602613349668,28.02364008865614,9.574606066399543,214.6306149989687,-42.652572759561565,242.65425508762485,-33.10602613349668,9.019190534388434,5.249954724051016,0.0,0.0,8,1.793132657515941e-15,2.274892979479081e-15,4.440892098500626e-13,0.0
0.7900377702726326,255.31130570052323,-27.565004169471788,244.59497736774375,-33.718729083585856,28.01163030621275,9.373701696288297,216.58334706153104,-43.0755671716232,244.59497736774375,-33.718729083585856,10.716328332779486,6.1537249141140675,0.0,0.0,8,1.0415756361794558e-15,1.6390063124987876e-15,2.7755575615628914e-14,0.0
0.7931481551949657,254.44073759519594,-27.718038396916512,241.8812555847594,-34.83167990865084,27.484030875935872,9.149956176449935,214.39722470882356,-43.93588917038968,241.8812555847594,-34.83167990865084,12.559482010436527,7.11364151173433,0.0,0.0,8,1.0447786267748576e-15,1.553553709693392e-15,4.440892098500626e-13,0.0
0.7962585401172989,252.92527360013344,-30.611661502147612,250.13790925213297,-32.430531469720705,32.59551366813028,11.992460544717382,217.5423955840027,-44.35898985226197,250.13790925213297,-32.430531469720705,2.787364348000469,1.8188699675730946,0.0,0.0,9,1.475687956405205e-15,1.472288520134464e-15,2.220446049250313e-13,0.0
0.7993689250396321,259.2278469517885,-29.64910614297837,255.46788100002846,-32.073171675252034,34.16450237133992,12.50307887197727,221.30337862868848,-44.4785947125867,255.46788100002846,-32.073171675252034,3.7599659517599946,2.4240655322736653,0.0,0.0,9,1.1696129949025326e-15,1.30494845180806e-15,4.440892098500626e-13,0.0
0.8024793099619653,260.95544002504266,-29.861721024864103,256.07798642652966,-32.96802855182761,33.34143696146431,12.163328701964643,222.7365494650653,-45.0281992185019,256.07798642652966,-32.96802855182761,4.877453598512977,3.106307526963505,0.0,0.0,9,2.3118636473944514e-15,1.6530776653775645e-15,4.440892098500626e-13,0.0
0.8055896948842985,261.9979901573147,-30.193203452310645,255.85918332813864,-34.05476261853647,32.1343904983367,11.681698598106289,223.72479282980194,-45.63172518114294,255.85918332813864,-34.05476261853647,6.1388068291760245,3.861559166225828,0.0,0.0,9,1.1076869609390407e-15,1.5123965644343648e-15,2.220446049250313e-13,0.0
0.8087000798066317,268.6370538923544,-29.26433542513295,261.09442878414694,-33.94991597324739,33.221954107531936,11.842499915290315,227.87247467661496,-45.68044711736058,261.09442878414694,-33.94991597324739,7.542625108207484,4.685580548114444,0.0,0.0,9,1.3167158654677992e-15,2.200551578987126e-15,4.440892098500626e-13,0.0
0.8118104647289649,268.4885030162396,-28.564060167270963,259.4013728605319,-34.13800455515015,32.25173205192852,11.446107030168626,227.1496408086034,-45.49007755655859,259.4013728605319,-34.13800455515015,9.087130155707635,5.573944387879184,0.0,0.0,8,1.2991760952954294e-15,2.8522930236713077e-15,2.220446049250313e-13,0.0
0.8149208496512981,272.03528113181494,-28.25937670438085,261.2651115354264,-34.78142914926037,32.4720926305962,11.278386790863856,228.7930189048302,-46.017028217422926,261.2651115354264,-34.78142914926037,10.770169596388547,6.5220524448795185,0.0,0.0,8,1.1962161837895048e-15,2.3089739615007603e-15,2.220446049250313e-13,0.0
0.8180312345736312,271.11493358090917,-28.498892311732618,258.525711664334,-36.024044884211776,31.801232692471103,10.97446972082307,226.72447897186288,-46.99236850614188,258.525711664334,-36.024044884211776,12.589221916575204,7.525152572479158,0.0,0.0,8,1.1525141334798097e-15,1.7826312908940434e-15,4.440892098500626e-13,0.0
0.8211416194959645,269.3784423899282,-31.582455311966637,266.59549881749035,-33.486544698150254,36.68035532926288,13.903629197122738,229.9151434882275,-47.37484955886876,266.59549881749035,-33.486544698150254,2.7829435724378517,1.904089386183619,0.0,0.0,9,1.0830223364390613e-15,1.6972914771551305e-15,2.220446049250313e-13,0.0
0.8242520044182977,275.58075755825894,-30.51810871039497,271.8371387648047,-33.05016346028516,38.57414970759073,14.536502803234896,233.26298905721399,-47.53176138003246,271.8371387648047,-33.05016346028516,3.7436187934542393,2.5320547498901913,0.0,0.0,9,2.018323098595513e-15,1.6012969203504706e-15,8.881784197001252e-13,0.0
0.8273623893406309,277.1268709635502,-30.769964558857037,272.2849104052333,-34.00695973644238,37.55782174203654,14.132617596184877,234.72708866319684,-48.060672872618504,272.2849104052333,-34.00695973644238,4.841960558316907,3.2369951775853454,0.0,0.0,9,1.4991800717131902e-15,1.9969439209591525e-15,4.440892098500626e-13,0.0
0.8304727742629641,277.97671493185163,-31.15611322982201,271.9012305802233,-35.17013923393463,36.11782348571294,13.562373725932812,235.78340709451032,-48.63513122094529,271.9012305802233,-35.17013923393463,6.075484351628372,4.014026004112614,0.0,0.0,9,2.048878012168791e-15,1.2733712525630828e-15,4.440892098500626e-13,0.0
0.8335831591852972,284.3999222104421,-30.127545330522082,276.95856599399093,-34.9856544697356,37.51614864064062,13.830218431837052,239.4424173533503,-48.69269308472009,276.95856599399093,-34.9856544697356,7.441356216451197,4.858109139213516,0.0,0.0,9,1.3103459323877763e-15,1.7058556605566746e-15,4.440892098500626e-13,0.0
0.8366935441076305,283.66851671130445,-29.305884849897094,274.7321146551027,-35.06995721352831,36.31263914798039,13.350120573555625,238.4194755071223,-48.29461500645242,274.7321146551027,-35.06995721352831,8.936402056201779,5.764072363631218,0.0,0.0,8,1.3083297329826036e-15,1.4131725914073935e-15,1.1102230246251565e-13,0.0
0.8398039290299637,286.99008735774083,-28.998890216924575,276.4329692545567,-35.72551919739901,36.658456211095725,13.226416911292763,239.77451304346104,-48.87446218498744,276.4329692545567,-35.72551919739901,10.557118103184091,6.726628980474434,0.0,0.0,8,1.0376302851733039e-15,1.965878664798037e-15,4.440892098500626e-13,0.0
0.8429143139522969,285.83092372738224,-29.36190095630053,273.5312412146824,-37.102298693176614,35.720582710628754,12.835111297091181,237.81065850405363,-49.913270641316316,273.5312412146824,-37.102298693176614,12.299682512699889,7.740397736876084,0.0,0.0,8,1.1825898171421145e-15,1.0543257422749422e-15,2.220446049250313e-13,0.0
0.84602469887463,283.9774751196291,-32.517371831737215,281.24514062197653,-34.471656611321805,40.345907826856205,15.78174868514844,240.89923279512035,-50.20841577648618,281.24514062197653,-34.471656611321805,2.7323344976525874,1.9542847795845888,0.0,0.0,9,2.095837008255263e-15,2.062121977922141e-15,2.220446049250313e-13,0.0
0.8491350837969633,289.8127696051943,-31.39614621691952,286.1557813618005,-33.98296511771367,42.50232393444689,16.475004718052297,243.6534574273536,-50.443165348421346,286.1557813618005,-33.98296511771367,3.656988243393837,2.586818900794151,0.0,0.0,9,1.0598288686295606e-15,1.0101233521417904e-15,4.440892098500626e-13,0.0
0.8522454687192965,291.134337343442,-31.671038938356975,286.4264590006635,-34.96408850496438,41.31326524510873,15.981419926558972,245.1131937555548,-50.932813145390874,286.4264590006635,-34.96408850496438,4.70787834277848,3.2930495666074036,0.0,0.0,9,1.059830075385824e-15,1.5820060093592956e-15,1.1102230246251565e-13,0.0
0.8553558536416297,291.7311488350631,-32.10378251562479,285.84986361926644,-36.17117778437145,39.6562456841683,15.323977294561727,246.19361793509816,-51.446867874827326,285.84986361926644,-36.17117778437145,5.881285215796661,4.067395268746657,0.0,0.0,9,1.2226292964392987e-15,1.8973148667146724e-15,8.881784197001252e-13,0.0
0.8584662385639629,297.66310111739523,-31.01631674417772,290.4898976188558,-35.920506827164125,41.3147839753659,15.69134796504273,249.1751136434899,-51.524942677592236,290.4898976188558,-35.920506827164125,7.173203498539429,4.904190082986408,0.0,0.0,9,1.1954400572033981e-15,2.3899803717289454e-15,2.220446049250313e-13,0.0
0.861576623486296,296.2417378711487,-30.104945288063778,287.6623809888252,-35.902650199351015,39.898199897751496,15.128805682765309,247.76418109107368,-50.921771090884405,287.6623809888252,-35.902650199351015,8.579356882323523,5.797704911287237,0.0,0.0,8,1.5436848720033412e-15,2.0159336092313364e-15,4.440892098500626e-13,0.0
0.8646870084086293,299.17282454427965,-29.789132545762293,289.0776107538616,-36.5313012020012,40.2159795634801,15.030609817392481,248.86163119038156,-51.47940645819706,289.0776107538616,-36.5313012020012,10.095213790418038,6.742168656238908,0.0,0.0,8,1.2692184158123256e-15,1.5998798354677291e-15,1.1102230246251565e-13,0.0
0.8677973933309625,300.4826183944079,-29.82789755364526,288.7666145663372,-37.55968679321798,39.1931017839475,14.587072514977311,249.57351278238968,-52.065620067434125,288.7666145663372,-37.55968679321798,11.716003828070736,7.731789239572716,0.0,0.0,8,1.2148678078283475e-15,1.7171962613393746e-15,4.440892098500626e-13,0.0
0.8709077782532957,294.07826010774363,-33.59780479837272,291.4398029354621,-35.562176887077165,43.15409141421951,17.409456759240715,248.28571152124266,-52.92407273900993,291.4398029354621,-35.562176887077165,2.638457172281504,1.9643720887044465,0.0,0.0,9,9.735362755181756e-16,1.6729697849239397e-15,4.440892098500626e-13,0.0
0.8740181631756289,300.446060625951,-32.28442323857928,296.9401417163877,-34.86667894431613,45.49697777973686,18.17342886996275,251.4431639366509,-52.99903595070606,296.9401417163877,-34.86667894431613,3.505918909563331,2.58225570573685,0.0,0.0,9,1.863105630015028e-15,1.70676111341021e-15,8.881784197001252e-13,0.0
0.877128548097962,301.57010958300856,-32.52795374231572,297.0850283127723,-35.795590994951276,44.26601614127004,17.623868178816437,252.8190121715022,-53.37497942344244,297.0850283127723,-35.795590994951276,4.485081270236253,3.267637252635563,0.0,0.0,9,1.0609937356094256e-15,1.2217467948540023e-15,1.1102230246251565e-13,0.0
0.8802389330202953,301.85536969685853,-32.97225312352131,296.2840277852703,-36.986743613808954,42.46279781339203,16.84588976625575,253.82122997187832,-53.80052493503799,296.2840277852703,-36.986743613808954,5.571341911588213,4.0144904902876455,0.0,0.0,9,1.1864503745730499e-15,1.656868371271642e-15,2.220446049250313e-13,0.0
0.8833493179426285,307.0364663374806,-31.8658615254586,300.27656741248614,-36.68264717604192,44.287253397271144,17.244191529512655,255.989314015215,-53.92450572901495,300.27656741248614,-36.68264717604192,6.759898924994439,4.816785650583317,0.0,0.0,9,1.7556158013068113e-15,2.1934977063960403e-15,2.220446049250313e-13,0.0
0.8864597028649617,307.52251945189863,-32.06845273269013,299.4767505362235,-37.73696321731201,42.712669637583645,16.61321947973532,256.76408089863986,-54.30587644901617,299.4767505362235,-37.73696321731201,8.04576891567513,5.668510484621876,0.0,0.0,9,1.201830467680242e-15,1.3587884498536527e-15,1.1102230246251565e-13,0.0
0.8895700877872948,304.33903466107216,-30.9828426484149,294.91522917391626,-37.546533451769804,40.71544202081624,15.797912207643243,254.1997871531,-53.266334874985475,294.91522917391626,-37.546533451769804,9.42380548715591,6.563690803354905,0.0,0.0,8,1.429620492491377e-15,2.2284554866781643e-15,2.220446049250313e-13,0.0
0.892680472709628,307.39634479289646,-30.392982385355594,296.507626736121,-37.889392818270196,41.53811376645391,15.959320854992043,254.96951296966708,-53.780651129831895,296.507626736121,-37.889392818270196,10.888718056775499,7.4964104329146,0.0,0.0,8,1.0330901667749802e-15,2.5638795877657367e-15,2.220446049250313e-13,0.0
0.8957908576319613,301.0617739847222,-34.136025157592975,298.5549405543821,-36.06860356690585,44.80777365007938,18.590276943670403,253.74716690430273,-54.6150219478898,298.5549405543821,-36.06860356690585,2.5068334303401167,1.9325784093128728,0.0,0.0,9,1.6798371981853488e-15,1.5716404692895163e-15,4.440892098500626e-13,0.0
0.8989012425542945,305.3782789007094,-33.44409209194825,302.0777135782088,-35.96180862055222,45.89360831926451,18.796001196775002,256.18410525894427,-54.71064995950328,302.0777135782088,-35.96180862055222,3.3005653225006393,2.517716528603966,0.0,0.0,9,1.406819053094421e-15,2.27342624726903e-15,4.440892098500626e-13,0.0
0.9020116274766277,307.524728724779,-33.13131628480216,303.33500818163327,-36.293248037227045,45.97546640126594,18.789143812107515,257.35954178036735,-55.017553250574224,303.33500818163327,-36.293248037227045,4.189720543145726,3.1619317524248833,0.0,0.0,9,1.3737403075239613e-15,1.2829179140287057e-15,2.220446049250313e-13,0.0
0.9051220123989608,307.6447930352181,-33.567682550117944,302.4755625556537,-37.42675452421646,44.23897788287504,18.000569887029222,258.2365846727787,-55.351150149462384,302.4755625556537,-37.42675452421646,5.169230479564364,3.8590719740985224,0.0,0.0,9,1.2385525018045078e-15,1.315090192641197e-15,2.220446049250313e-13,0.0
0.908232397321294,309.40060790745184,-33.21205795868165,303.1666859277907,-37.815121607216774,44.29077371318197,17.96219791851751,258.87591221460866,-55.70244393655056,303.1666859277907,-37.815121607216774,6.233921979661123,4.603063648535127,0.0,0.0,9,1.147962469270844e-15,1.8549511612997904e-15,8.881784197001252e-13,0.0
0.9113427822436273,311.6639381265842,-33.01957953019455,304.2854020822592,-38.40750992242308,44.00547994135596,17.467596342658094,260.2799221409033,-55.83935193775184,304.2854020822592,-38.40750992242308,7.3785360443249575,5.38793039222853,0.0,0.0,9,1.7581400954496481e-15,1.1601738495872238e-15,8.881784197001252e-13,0.0
0.9144531671659605,311.5923359812505,-33.20930733200389,302.99458949879727,-39.417118032868174,42.358001936997624,16.77668414812354,260.63658756179973,-56.18386108745651,302.99458949879727,-39.417118032868174,8.597746482453244,6.2078107008642895,0.0,0.0,9,1.6872474620890404e-15,1.5953282012976896e-15,1.1102230246251565e-13,0.0
0.9175635520882937,309.0398780526496,-31.205170098072294,299.1536995922452,-38.26214482793094,42.148543157099795,16.532292847269037,257.00515643514547,-54.774203740878946,299.1536995922452,-38.26214482793094,9.886178460404443,7.056974729858647,0.0,0.0,8,1.0956729859174661e-15,2.127108052896733e-15,4.440892098500626e-13,0.0
0.9206739370106268,303.5732392478601,-34.45981712788205,301.2281548998641,-36.32060715724839,45.29239018878586,19.24680610383168,255.93576471107818,-55.54881849818617,301.2281548998641,-36.32060715724839,2.3450843479960057,1.8607900293663415,0.0,0.0,9,1.2100859865738485e-15,1.3665851055299835e-15,4.440892098500626e-13,1.734723475976807e-18
0.92378432193296,305.40132815573384,-34.4042380151285,302.34707392122885,-36.802438049845556,44.72170793073884,18.938907234288955,257.62536599049,-55.68276702431653,302.34707392122885,-36.802438049845556,3.054254234504972,2.398200034717058,0.0,0.0,9,1.2981103321537067e-15,2.2104598999319257e-15,4.440892098500626e-13,0.0
0.9268947068552933,309.0482757266073,-33.51048279811843,305.2060447029984,-36.49549480850401,46.61773581764604,19.481799611636685,258.5883088853523,-55.92530195694657,305.2060447029984,-36.49549480850401,3.8422310236089117,2.9850120103855793,0.0,0.0,9,1.7979810721085336e-15,1.6166929770149128e-15,4.440892098500626e-13,0.0
0.9300050917776265,309.16473571001336,-33.86511833170738,304.46084131385277,-37.480400283037824,45.20595558786037,18.782318447219343,259.2548857259923,-56.18922746663274,304.46084131385277,-37.480400283037824,4.703894396160618,3.615281951330444,0.0,0.0,9,2.6904293342790714e-15,1.672485589771168e-15,8.881784197001252e-13,0.0
0.9331154766999596,308.8002180574024,-34.298943697011296,303.166108579125,-38.58215996515409,43.43281810201433,17.961855155268967,259.73329047711064,-56.45245453470504,303.166108579125,-38.58215996515409,5.63410947827736,4.283216268142797,0.0,0.0,9,1.1472894950084235e-15,1.5126403074804733e-15,8.881784197001252e-13,0.0
0.9362258616222928,312.0878850907526,-33.443797850142985,305.4601413322628,-38.426983910911005,44.94431242989554,18.23720746950526,260.5158289023673,-56.601329594172604,305.4601413322628,-38.426983910911005,6.627743758489749,4.983186060768018,0.0,0.0,9,1.4227981926017032e-15,1.335648558928879e-15,2.220446049250313e-13,0.0
0.9393362465446261,311.81375207868143,-33.659659602538014,304.1340684750558,-39.36939987453501,43.38399493496318,17.52929909680611,260.75007354009267,-56.83478280499196,304.1340684750558,-39.36939987453501,7.679683603625613,5.709740271996998,0.0,0.0,9,1.3516102851330087e-15,1.226595099056632e-15,2.220446049250313e-13,0.0
0.9424466314669593,310.68193023147614,-34.17011182060186,301.8970799091303,-40.62772951752516,41.155273294846644,16.507717763296263,260.74180661428363,-57.08290249674589,301.8970799091303,-40.62772951752516,8.784850322345848,6.457617696923301,0.0,0.0,9,1.9966498642421707e-15,1.2520735948398965e-15,2.220446049250313e-13,0.0
0.9455570163892925,308.7302752012463,-35.93314124116379,306.56803086571284,-37.687495461710654,46.07555801552189,19.68221290715619,260.49247285019095,-57.34648847727496,306.56803086571284,-37.687495461710654,2.1622443355334213,1.7543542205468687,0.0,0.0,10,1.1357244714897234e-15,1.3693701665557362e-15,4.440892098500626e-13,0.0
0.9486674013116256,301.78528534515397,-34.77520125357423,299.0032314185798,-37.008817088613434,43.89103018133551,18.963138693412443,255.11220123724428,-55.96611564746812,299.0032314185798,-37.008817088613434,2.782053926574199,2.233615835039202,0.0,0.0,9,1.0329657976197253e-15,9.949700300860086e-16,4.440892098500626e-13,0.0
0.9517777862339588,302.5640952975429,-35.00673822208144,299.09914611494077,-37.75912671620449,42.93917802378583,18.33785439702308,256.15996809115495,-56.063008060355266,299.09914611494077,-37.75912671620449,3.464949182602118,2.752388494123053,0.0,0.0,9,1.0892453889111696e-15,1.5252443652581434e-15,4.440892098500626e-13,0.0
0.9548881711562921,305.4733344853871,-34.14681526491677,301.2672218882463,-37.45204563951323,44.665075310858,18.834957386082287,256.60214657738834,-56.24904356534267,301.2672218882463,-37.45204563951323,4.206112597140827,3.305230374596465,0.0,0.0,9,1.5571880067431127e-15,1.4785268513765112e-15,2.220446049250313e-13,0.0
0.9579985560786253,305.020431057033,-34.52629230419522,300.01964502669205,-38.413194648809906,43.17202719662712,18.078346297270734,256.84761783006496,-56.431815576316694,300.01964502669205,-38.413194648809906,5.000786030340953,3.88690234461468,0.0,0.0,9,1.7021654845838378e-15,1.7341474890061939e-15,4.440892098500626e-13,0.0
0.9611089410009584,305.5140728726237,-34.377755238324205,299.66978872000607,-38.87013205693017,42.73232054976221,17.81469480853778,256.93746817024385,-56.603795717040725,299.66978872000607,-38.87013205693017,5.844284152617622,4.492376818605961,0.0,0.0,9,1.2095429415921836e-15,1.390882953638488e-15,2.220446049250313e-13,0.0
0.9642193259232916,304.877957744992,-34.62004385501402,298.1459504864622,-39.736889285105846,41.29361903810018,17.130448274875,256.852331448362,-56.770423553743896,298.1459504864622,-39.736889285105846,6.732007258529774,5.116845430091826,0.0,0.0,9,1.5065013369796704e-15,1.8046633631108874e-15,2.220446049250313e-13,0.0
0.9673297108456248,305.6597818716071,-34.48553582110147,298.00032844861306,-40.24126135135298,41.00615449571319,16.669610244012325,256.99417395289987,-56.83955668629992,298.00032844861306,-40.24126135135298,7.659453422994061,5.7557255302515085,0.0,0.0,9,1.5148969949156425e-15,1.5687751147282454e-15,1.1102230246251565e-13,0.0
0.9704400957679581,303.4896218984968,-36.097647855612855,301.52164479349125,-37.71901648122054,44.8689083090975,19.329429014797604,256.6527364843937,-56.97724576544422,301.52164479349125,-37.71901648122054,1.9679771050055637,1.6213686256076878,0.0,0.0,10,1.5523702488083713e-15,1.1101657267886435e-15,1.1102230246251565e-13,0.0
0.9735504806902913,302.1952838528758,-36.34438383281329,299.6960098229953,-38.381673765151945,43.59081401061914,18.797018014771478,256.10519581237617,-57.12034696606503,299.6960098229953,-38.381673765151945,2.4992740298805156,2.0372899323386555,0.0,0.0,10,1.4070928540175442e-15,1.4886721779612284e-15,2.220446049250313e-13,0.0
0.9766608656126244,300.22701981032895,-36.863372483210135,297.14727227004255,-39.34689878172694,41.79552324384943,17.952082285456637,255.35174902619306,-57.27007276187919,297.14727227004255,-39.34689878172694,3.079747540286395,2.483526298516808,0.0,0.0,10,1.8153133721166638e-15,1.1787412901129973e-15,4.440892098500626e-13,0.0
0.9797712505349576,293.19396486151953,-34.817031697917685,289.4888260671812,-37.77238062151262,40.48831003005242,17.49932451777815,249.0005160371288,-55.265433405220605,289.4888260671812,-37.77238062151262,3.7051387943383465,2.9553489235949306,0.0,0.0,9,1.256111164633742e-15,1.5872417634309018e-15,1.1102230246251565e-13,0.0
0.9828816354572908,295.1689599192618,-34.41760495167003,290.7976600654831,-37.865864331149616,41.27288408114731,17.490046150000904,249.52477598433583,-55.335031929439864,290.7976600654831,-37.865864331149616,4.371299853778684,3.448259379479584,0.0,0.0,9,1.2811033503096238e-15,1.86503913705316e-15,1.1102230246251565e-13,0.0
0.9859920203796241,294.40349932256015,-34.82929279924777,289.3292964576261,-38.78728572728249,39.81869135433614,16.731931461942196,249.51060510329003,-55.47732061738596,289.3292964576261,-38.78728572728249,5.0742028649340245,3.9579929280347166,0.0,0.0,9,1.079344004262025e-15,1.1677734636508011e-15,1.1102230246251565e-13,0.0
0.9891024053019573,294.66154690247095,-34.64958798600634,288.85159836908736,-39.13010875081228,39.5227620106429,16.54116338637098,249.32883635844448,-55.60780391037115,288.85159836908736,-39.13010875081228,5.809948533383612,4.4805207648059415,0.0,0.0,9,1.245422686569005e-15,1.5702305914443767e-15,1.1102230246251565e-13,0.0
0.9922127902242904,295.1937750026414,-34.517193044417255,288.61900111527547,-39.52924426664459,39.45895964357241,16.21039551134583,249.16004147170304,-55.68600713036105,288.61900111527547,-39.52924426664459,6.574773887365934,5.012051222227334,0.0,0.0,9,1.1537491504067341e-15,1.2861411323116646e-15,1.1102230246251565e-13,0.0
0.9953231751466236,291.35222371442177,-36.754710210421315,289.5804337311792,-38.226308664592,40.83019145493871,17.61054415602465,248.7502422762405,-55.77161094185778,289.5804337311792,-38.226308664592,1.7717899832425688,1.4715984541706797,0.0,0.0,10,1.24001044488139e-15,1.4538808273442671e-15,2.220446049250313e-13,0.0
0.9984335600689568,291.66769001033896,-36.25043614677369,289.44757687151736,-38.07448574892807,41.27813221849649,17.846364684617882,248.16944465302086,-55.8492331912827,289.44757687151736,-38.07448574892807,2.2201131388215747,1.8240496021543822,0.0,0.0,10,1.6677028244639096e-15,1.989413575322833e-15,4.440892098500626e-13,0.0
1.00154394499129,289.8484663953553,-36.684110508411116,287.1424182421119,-38.883065751798355,39.73263294513098,17.10737779792337,247.40978529698089,-55.92156208896303,287.1424182421119,-38.883065751798355,2.7060481532434117,2.1989552433872417,0.0,0.0,10,1.1211290754576901e-15,1.8586236080794372e-15,2.220446049250313e-13,0.0
1.0046543299136232,288.5088042903128,-36.76322029868153,285.28276627141616,-39.35562624334814,38.815253297655175,16.68862195255976,246.46751297376102,-55.9903699329656,285.28276627141616,-39.35562624334814,3.2260380188966415,2.5924059446666097,0.0,0.0,10,1.6625085525416449e-15,1.3245674979369712e-15,4.440892098500626e-13,0.0
1.0077647148359565,285.271654248579,-37.38785096548982,281.4949896463989,-40.38857682613077,36.70719434408238,15.825407252545748,244.78779530231645,-56.185439169324745,281.4949896463989,-40.38857682613077,3.776664602180101,3.0007258606409564,0.0,0.0,10,1.610962797058925e-15,1.7063192658731117e-15,4.440892098500626e-13,0.0
1.0108750997582896,281.0081204160974,-34.57122609354556,276.65346676770963,-37.991697376399955,37.347026614968186,15.791362457694992,239.30644015274146,-53.775881253993205,276.65346676770963,-37.991697376399955,4.354653648387803,3.420471282854395,0.0,0.0,9,1.8022384556197005e-15,1.835819502763475e-15,4.440892098500626e-13,0.0
1.0139854846806229,280.8986330870338,-34.50032178340256,275.9417539525093,-38.348750130731986,36.955220930075726,15.524398699957665,238.98653302243358,-53.846633869807974,275.9417539525093,-38.348750130731986,4.956879134524473,3.8484283473294214,0.0,0.0,9,1.280737923281155e-15,2.4357421331872087e-15,2.220446049250313e-13,0.0
1.017095869602956,279.80567033779033,-34.78982304412466,274.2253033549456,-39.0714329926461,35.70423216761409,14.876600903937767,238.52107118733147,-53.90088596503791,274.2253033549456,-39.0714329926461,5.580366982844763,4.281609948521446,0.0,0.0,9,1.3626546686506445e-15,1.7995665848675925e-15,1.1102230246251565e-13,0.0
1.0202062545252892,277.78309255498397,-36.171969268088105,276.20075219524,-37.487202823185605,38.19003998698706,16.47417648840427,238.010712208253,-53.91640038793955,276.20075219524,-37.487202823185605,1.5823403597439467,1.315233555097503,0.0,0.0,10,1.4553034260300395e-15,1.5912421291339477e-15,1.1102230246251565e-13,0.0
1.0233166394476225,276.6038858046465,-36.26646038226011,274.64725995203037,-37.87475297222465,37.32143364796808,16.10674172919861,237.32582630406233,-53.924078999378274,274.64725995203037,-37.87475297222465,1.956625852616141,1.6082925899645386,0.0,0.0,10,1.3692959908719371e-15,1.722380360166576e-15,8.881784197001252e-13,0.0
1.0264270243699556,275.87171590035035,-36.17127260975621,273.5122505455836,-38.08886792029066,37.019431573393916,15.895819825607015,236.4928189721896,-53.918653592755355,273.5122505455836,-38.08886792029066,2.3594653547667876,1.917595310534451,0.0,0.0,10,1.3769933558066725e-15,1.3675972084385237e-15,1.1102230246251565e-13,0.0
1.0295374092922889,273.7998070008705,-36.57973423766092,271.0117640016508,-38.819791092559406,35.50824178063238,15.150884789418654,235.50352222101844,-53.902862329280154,271.0117640016508,-38.819791092559406,2.7880429992196927,2.2400568548984827,0.0,0.0,10,1.0478576077276868e-15,1.5288737072929872e-15,2.220446049250313e-13,0.0
1.032647794214622,272.3356876355348,-36.567527313743234,269.0959983565318,-39.140336530888455,34.743001520596664,14.798569778660152,234.3529968359352,-53.87871342069607,269.0959983565318,-39.140336530888455,3.239689279002948,2.5728092171452177,0.0,0.0,10,1.8883679421762124e-15,2.5820682700102064e-15,1.1102230246251565e-13,0.0
1.0357581791369552,269.97355781187025,-36.76128883789955,266.26167520246236,-39.67448521396933,33.69316407638443,14.332237527387269,232.5685111260779,-53.95687137503145,266.26167520246236,-39.67448521396933,3.7118826094078834,2.9131963760697768,0.0,0.0,10,1.371684269764615e-15,1.665118540689956e-15,5.551115123125783e-14,0.0
1.0388685640592885,268.7547531126692,-36.7644454839553,264.55250273482466,-40.02321435432948,33.030648060782255,13.805155722367637,231.52185467404237,-53.81993244396356,264.55250273482466,-40.02321435432948,4.202250377844583,3.2587688703741864,0.0,0.0,10,1.5656031743652871e-15,1.8976121802553906e-15,1.1102230246251565e-13,0.0
1.0419789489816216,262.2902716137998,-33.965709792100455,257.58170210955086,-37.57298766299209,32.76658919653358,13.606338856732268,224.81511291301726,-51.16592894382988,257.58170210955086,-37.57298766299209,4.708569504248952,3.607277870891636,0.0,0.0,9,1.3239083860041234e-15,1.7769500480949335e-15,2.220446049250313e-13,0.0
1.0450893339039549,259.58144786615776,-35.3177602579904,258.17453605163325,-36.479477614579835,33.997201851838824,14.711855619479069,224.17733419979444,-51.15985643017276,258.17453605163325,-36.479477614579835,1.4069118145245327,1.1617173565894372,0.0,0.0,10,1.2972587104621113e-15,2.1451155906298487e-15,2.220446049250313e-13,0.0
1.048199718826288,257.99647369636386,-35.62004178977073,256.2783642950421,-37.022445434990104,32.85685714577958,14.159403183162452,223.42150714926254,-51.13315184833367,256.2783642950421,-37.022445434990104,1.7181094013217844,1.4024036452193707,0.0,0.0,10,2.0480328701450452e-15,2.0452296348836426e-15,2.220446049250313e-13,0.0
1.0513101037486212,257.7702964908102,-35.36076885301779,255.71911566820745,-37.015558894982334,33.08939597294345,14.097238525968878,222.629719695264,-51.067679597727206,255.71911566820745,-37.015558894982334,2.051180822602765,1.6547900419645494,0.0,0.0,10,1.3348128368244534e-15,1.8395844670793654e-15,4.440892098500626e-13,0.0
1.0544204886709545,256.82209782180854,-35.26654452596023,254.4180863258141,-37.183087535868495,32.759873947210494,13.86824461620245,221.65821237860362,-50.9977522090539,254.4180863258141,-37.183087535868495,2.4040114959944585,1.9165430099082696,0.0,0.0,10,1.3967297109719287e-15,1.6071670250596907e-15,5.551115123125783e-14,0.0
1.0575308735932876,254.83919236245615,-35.528059944915114,252.06456649906315,-37.71357617051817,31.515824466520122,13.257936271130749,220.548742032543,-50.914597796694764,252.06456649906315,-37.71357617051817,2.7746258633929854,2.185516225603051,0.0,0.0,10,1.1336018274199679e-15,2.332960609508562e-15,4.440892098500626e-13,0.0
1.0606412585156209,253.18783800265996,-35.53916895466297,250.02665143114098,-37.99891276719028,30.730033827765116,12.874307230304563,219.29661760337586,-50.820239204808736,250.02665143114098,-37.99891276719028,3.1611865715189924,2.4597438125273134,0.0,0.0,10,1.3509382351344218e-15,1.6381885916768266e-15,8.881784197001252e-13,0.0
1.063751643437954,249.78629742708455,-36.034762502649144,246.22430411351525,-38.77219580009559,28.7663317633317,12.097303688808879,217.4579723501835,-50.81869887924443,246.22430411351525,-38.77219580009559,3.5619933135692925,2.7374332974464446,0.0,0.0,10,1.2941771506984777e-15,1.970073181443409e-15,8.881784197001252e-13,0.0
1.0668620283602872,249.1754682288002,-35.72837429623863,245.19998687117877,-38.745332629596795,28.961585842881973,11.902993593112033,216.23840102829678,-50.631191296148984,245.19998687117877,-38.745332629596795,3.9754813576214487,3.0169583333581667,0.0,0.0,10,1.636752039294778e-15,2.379478560447707e-15,2.220446049250313e-13,0.0
1.0699724132826205,246.73682411857746,-36.278207528291674,245.48571394185458,-37.29705244216665,30.755468583094924,13.161070920136474,214.73024535875965,-50.45056014612803,245.48571394185458,-37.29705244216665,1.251110176722876,1.0188449138749756,0.0,0.0,11,1.6265166025666123e-15,1.908356838866784e-15,5.551115123125783e-14,0.0
1.0730827982049536,244.59635893784457,-36.27924158772164,243.0854285362343,-37.494996458263394,29.951873488446157,12.753517693471588,213.13355504778815,-50.22521099885836,243.0854285362343,-37.494996458263394,1.5109304016102578,1.2157548705417476,0.0,0.0,11,1.1431631401472956e-15,2.3990693618440806e-15,4.440892098500626e-13,0.0
1.0761931831272868,237.38906394926144,-33.974647009011846,235.60105304281834,-35.39594317717328,28.892834855326726,12.212329928424026,206.70821818749158,-47.57011244724326,235.60105304281834,-35.39594317717328,1.788010906443099,1.4212961681614307,0.0,0.0,10,1.8048909236752563e-15,1.7928757771095683e-15,1.1102230246251565e-13,0.0
1.07930356804962,236.99705307624492,-33.71349878081597,234.916202237293,-35.34726579858634,29.071085843390627,12.146906254574162,205.84511639390237,-47.45750337242854,234.916202237293,-35.34726579858634,2.0808508389519256,1.6337670177703711,0.0,0.0,10,1.0515318279590729e-15,2.0667265576152752e-15,1.1102230246251565e-13,0.0
1.0824139529719532,236.01335193203377,-33.57302512415758,233.62527932046814,-35.42464279456306,28.79255345988134,11.955905764729362,204.8327258605868,-47.33706423236927,233.62527932046814,-35.42464279456306,2.3880726115656237,1.8516176704054819,0.0,0.0,10,1.362096872845968e-15,1.6413309148394183e-15,2.220446049250313e-13,0.0
1.0855243378942865,234.03801153357597,-33.810848800754336,231.32959174629408,-35.88429190284595,27.631340979466206,11.365277033841897,203.69825076682787,-47.20362268421139,231.32959174629408,-35.88429190284595,2.7084197872818856,2.0734431020916166,0.0,0.0,10,1.301703553678388e-15,2.4800456517752527e-15,2.220446049250313e-13,0.0
1.0886347228166195,232.5238137534417,-33.72241007976503,229.48305896225048,-36.0203857190168,27.04548641850725,11.08123083456709,202.43757254374324,-47.05929871557534,229.48305896225048,-36.0203857190168,3.040754791191205,2.2979756392517716,0.0,0.0,10,1.0792720371969367e-15,2.541690189385205e-15,4.440892098500626e-13,0.0
1.0917451077389528,230.34692716442203,-33.899378064081276,226.9628706938968,-36.42345562011991,25.914331884501056,10.513460681435168,201.04853880939575,-46.905801069623,226.9628706938968,-36.42345562011991,3.384056470525231,2.524077556038633,0.0,0.0,10,1.6321895179319361e-15,1.768752180880325e-15,4.440892098500626e-13,0.0
1.094855492661286,226.32536875215504,-34.86608201014918,225.2065730278167,-35.75833226123317,26.125664887779756,11.104299792585682,199.0809081400369,-46.848938676090214,225.2065730278167,-35.75833226123317,1.1187957243383668,0.8922502510839927,0.0,0.0,11,1.6030160416092132e-15,1.7869281238238273e-15,4.440892098500626e-13,0.0
1.0979658775836192,226.1026211179998,-34.23252870105504,224.76387975341555,-35.28689075832976,26.979512052725802,11.299657587224239,197.7843677006897,-46.58016383471563,224.76387975341555,-35.28689075832976,1.3387413645842507,1.0543620572747243,0.0,0.0,11,1.2659498105037319e-15,2.9904606220651542e-15,2.220446049250313e-13,0.0
1.1010762625059525,223.98789643951673,-34.24094559324715,222.4148782975779,-35.46416088446993,26.199545840293126,10.874550483843446,196.21533245728477,-46.32066743341025,222.4148782975779,-35.46416088446993,1.5730181419388343,1.2232152912227843,0.0,0.0,11,1.1931381200902757e-15,2.0784604507402045e-15,4.440892098500626e-13,0.0
1.1041866474282855,221.9948324979382,-34.09414978776744,220.17419882842614,-35.49175514604697,25.608213094238813,10.575988909289501,194.56598573418736,-46.03884698021447,220.17419882842614,-35.49175514604697,1.8206336695120617,1.3976053582795296,0.0,0.0,11,2.0973313197281367e-15,2.0507676226107324e-15,1.1102230246251565e-13,0.0
1.1072970323506188,214.62680666545765,-31.480319806774464,212.54610635220712,-33.05676481386108,24.834423733440424,10.197072819112385,187.71168261876673,-43.21643126279434,212.54610635220712,-33.05676481386108,2.0807003132505226,1.576445007086617,0.0,0.0,10,1.3657504602272192e-15,1.8161829202669735e-15,1.1102230246251565e-13,0.0
1.110407417272952,213.01247999667453,-31.67823325279927,210.66004730914764,-33.436990673268944,23.86515432165373,9.712017732616243,186.79489298749394,-43.10703648730368,210.66004730914764,-33.436990673268944,2.3524326875268917,1.7587574204696732,0.0,0.0,10,1.2603243131382791e-15,1.549384530585054e-15,2.220446049250313e-13,0.0
1.1135178021952852,213.03236905953702,-31.229993251284558,210.39722395328505,-33.173662636804096,24.469290381222073,9.80524411792217,185.92793357206298,-42.94764247068643,210.39722395328505,-33.173662636804096,2.635145106251962,1.9436693855195375,0.0,0.0,10,1.2256067663095113e-15,1.78431092179611e-15,1.1102230246251565e-13,0.0
1.1166281871176185,211.33779347754248,-31.335956817186982,208.40954447078374,-33.46636137834443,23.574405389952055,9.363668345692565,184.83513908083165,-42.80333829612352,208.40954447078374,-33.46636137834443,2.928249006758744,2.130404561157448,0.0,0.0,10,2.0524194400457323e-15,1.65758107756802e-15,5.551115123125783e-14,0.0
1.1197385720399515,208.6635443279101,-32.014977709299956,207.65131199389134,-32.800284806167575,24.02601476589001,9.86563095284675,183.62529722800136,-42.65002254372345,207.65131199389134,-32.800284806167575,1.0122323340187653,0.7853070968676176,0.0,0.0,11,1.4905816945611345e-15,2.653256559322081e-15,2.220446049250313e-13,0.0
1.1228489569622848,206.83673038925056,-32.011047585834625,205.6337441736914,-32.93216536894502,23.3360341704051,9.556402302273794,182.29771000328634,-42.486801117340704,205.6337441736914,-32.93216536894502,1.202986215559156,0.9211177831103992,0.0,0.0,11,1.5288765984948306e-15,1.6101354583520562e-15,2.220446049250313e-13,0.0
1.1259593418846179,205.86825429207934,-31.664719051697205,204.46179220180292,-32.72737088898228,23.598051533509484,9.575389082233437,180.86374066829345,-42.29038434872562,204.46179220180292,-32.72737088898228,1.406462090276413,1.0626518372850726,0.0,0.0,11,1.37430948450162e-15,1.4688186648565237e-15,5.551115123125783e-14,0.0
1.1290697268069512,203.11531555622253,-31.83765086996004,201.49323930457584,-33.046726743441226,22.624357914684204,9.138206726766759,178.86888138989164,-42.17095457028618,201.49323930457584,-33.046726743441226,1.6220762516466922,1.209075873481185,0.0,0.0,11,1.1554342867721975e-15,1.805875246114919e-15,4.440892098500626e-13,0.0
