time_s,total_vertical_force_n,total_pitch_moment_nm,raw_bem_vertical_force_n,raw_bem_pitch_moment_nm,resolved_station_bem_vertical_force_n,resolved_station_bem_pitch_moment_nm,transom_extrapolation_vertical_force_n,transom_extrapolation_pitch_moment_nm,pre_chine_bem_vertical_force_n,pre_chine_bem_pitch_moment_nm,post_chine_bem_vertical_force_n,post_chine_bem_pitch_moment_nm,bem_vertical_force_n,bem_pitch_moment_nm,front_vertical_force_n,front_pitch_moment_nm,transom_vertical_force_n,transom_pitch_moment_nm,longitudinal_bin_aft_post_chine_vertical_force_n,longitudinal_bin_aft_post_chine_pitch_moment_nm,longitudinal_bin_middle_post_chine_vertical_force_n,longitudinal_bin_middle_post_chine_pitch_moment_nm,longitudinal_bin_forward_post_chine_vertical_force_n,longitudinal_bin_forward_post_chine_pitch_moment_nm,longitudinal_bin_pre_chine_vertical_force_n,longitudinal_bin_pre_chine_pitch_moment_nm,active_plane_count,potential_bvp_relative_residual,potential_bvp_condition_number,pressure_bvp_relative_residual,pressure_bvp_condition_number,free_surface_pressure_max_abs_pa,contact_constraint_max_abs_m,aftmost_resolved_station_x_m,foremost_resolved_station_x_m,transom_coverage_gap_m
0.0,430.6299881102317,-38.41724688596426,419.6633829728205,-45.688615834653376,419.6633829728205,-45.688615834653376,0.0,0.0,113.7282548036166,39.07426175323478,305.93512816920395,-84.76287758788823,419.6633829728205,-45.688615834653376,10.966605137411221,7.271368948689118,0.0,0.0,112.54755441928616,-62.55300829097203,96.61473033553284,-25.488962694971846,96.7728434143849,3.279093398055707,113.7282548036166,39.07426175323478,11,1.0226711181046882e-15,963.6741823512789,2.1203995804070782e-15,963.6741823512789,2.220446049250313e-13,9.71445146547012e-17,0.0,1.3161740142073626,0.0
0.002861086253234589,448.13737574812734,-37.61395784439741,433.2061876933839,-47.37795254683823,385.2838866768305,-16.707054288637096,47.92230101655343,-30.670898258201134,115.96310586320702,39.38759803788969,317.2430818301769,-86.76555058472792,433.2061876933839,-47.37795254683823,14.931188054743439,9.763994702440819,0.0,0.0,115.29427211608909,-64.05437199334327,99.81539637853587,-26.297885313374735,102.13341333555196,3.5867067219900974,115.96310586320702,39.38759803788969,10,1.1840888506018018e-15,888.2626738853045,1.6548406234797053e-15,888.2626738853045,4.440892098500626e-13,0.0,0.1151652262431444,1.2997218390297705,0.1151652262431444
0.005722172506469178,467.4916365656826,-39.75068961532189,447.99737955873604,-52.3209973931917,404.8176314076353,-24.336616037302008,43.17974815110074,-27.984381355889695,114.52845680114011,38.38897628258637,333.46892275759586,-90.70997367577797,447.99737955873604,-52.3209973931917,19.49425700694657,12.570307777869814,0.0,0.0,120.54003383063704,-66.97616185621546,104.74428943169934,-27.5675182928383,108.18459949525949,3.833706473275754,114.52845680114011,38.38897628258637,10,1.162067447156927e-15,821.1532315676062,1.4603305224013185e-15,821.1532315676062,2.220446049250313e-13,0.0,0.09871305106555228,1.2832696638521786,0.09871305106555228
0.008583258759703769,474.54557452407784,-42.864341551878255,449.8987728808552,-58.5325721098211,412.34756904008475,-33.891892675007114,37.55120384077043,-24.64067943481399,107.55738589352396,36.12939584152332,342.34138698733125,-94.66196795134445,449.8987728808552,-58.5325721098211,24.64680164322264,15.668230557942845,0.0,0.0,125.04347250792524,-69.48836663331662,108.75220534314968,-28.612486082575806,108.54570913625628,3.4388847645480496,107.55738589352396,36.12939584152332,10,1.0580601899693585e-15,756.4713791767535,1.1184730477250855e-15,756.4713791767535,2.220446049250313e-13,0.0,0.08226087588796038,1.2668174886745864,0.08226087588796038
0.011444345012938357,482.4988083075748,-43.559060109111044,452.1209541663982,-62.59384037748703,421.1454795708196,-42.016653761308675,30.97547459557859,-20.577186616178352,104.55882247619562,34.8069231731906,347.56213169020253,-97.40076355067765,452.1209541663982,-62.59384037748703,30.37785414117664,19.034780268375982,0.0,0.0,128.1349012746267,-71.21608077749269,111.35062781737855,-29.29803494245523,108.07660259819727,3.113352169270314,104.55882247619562,34.8069231731906,10,1.2479748977642204e-15,695.6280178134615,1.2416892897017753e-15,695.6280178134615,4.440892098500626e-13,0.0,0.06580870071036804,1.2503653134969945,0.06580870071036804
0.014305431266172945,491.45611962313825,-42.49894422830473,454.7815947421753,-65.14512110078792,431.02394555364157,-49.169448827002526,23.75764918853372,-15.975672273785392,103.65603781696744,33.95188232681514,351.1255569252079,-99.09700342760308,454.7815947421753,-65.14512110078792,36.67452488096296,22.64617687248319,0.0,0.0,130.18803396700474,-72.36730787326255,112.89652932969291,-29.715776558982775,108.04099362851025,2.98608100464223,103.65603781696744,33.95188232681514,10,9.633923905988322e-16,639.4117700463502,1.0530605228357713e-15,639.4117700463502,4.440892098500626e-13,0.0,0.04935652553277614,1.2339131383194024,0.04935652553277614
0.017166517519407537,500.7887186443648,-40.158914973527644,457.2666725483653,-66.63686907746597,441.1823035710159,-55.68979442697696,16.084368977349413,-10.947074650489014,103.36968101854158,33.21133233220486,353.8969915298237,-99.84820140967082,457.2666725483653,-66.63686907746597,43.522046095999485,26.477954103938334,0.0,0.0,131.33267764455073,-73.0132629483075,113.61698997829907,-29.91706241503806,108.9473239069739,3.0821239536747385,103.36968101854158,33.21133233220486,10,9.370472631377217e-16,587.8560802612872,1.8288867129613517e-15,587.8560802612872,4.440892098500626e-13,0.0,0.03290435035518402,1.2174609631418103,0.03290435035518402
0.020027603772642125,509.4101303505079,-37.03207597323239,458.50630703357893,-67.5371490451833,450.38451444651764,-61.94295482668909,8.121792587061293,-5.594194218494209,102.79144055371354,32.379586686926984,355.7148664798654,-99.91673573211034,458.50630703357893,-67.5371490451833,50.90382331692898,30.50507307195091,0.0,0.0,131.74703542649405,-73.2520005615101,113.72811120371846,-29.955754322321404,110.23971984965291,3.2910191517211587,102.79144055371354,32.379586686926984,10,1.306644827612259e-15,540.7769405384308,1.195442943753179e-15,540.7769405384308,4.440892098500626e-13,0.0,0.01645217517759212,1.2010087879642184,0.01645217517759212
0.022888690025876714,496.1235706856461,-44.90958387188473,476.8520312364581,-57.971715468146385,476.8520312364581,-57.971715468146385,0.0,0.0,120.25616590930177,41.537784164691544,356.59586532715633,-99.50949963283793,476.8520312364581,-57.971715468146385,19.271539449187948,13.06213159626166,0.0,0.0,131.60587198044698,-73.1788859450864,113.390194208183,-29.87425510023671,111.59979913852635,3.5436414124852007,120.25616590930177,41.537784164691544,11,1.5000375817954035e-15,717.8398789419224,1.3405432467275617e-15,717.8398789419224,4.440892098500626e-13,3.469446951953614e-18,0.0,1.3161740142073626,0.0
0.025749776279111302,500.5542606375126,-40.98056014544339,476.27708647674666,-57.21359186384649,421.84529941887547,-22.375006023472224,54.43178705787119,-34.838585840374265,120.35477123950182,41.365343771034134,355.9223152372448,-98.57893563488057,476.27708647674666,-57.21359186384649,24.277174160765895,16.233031718403094,0.0,0.0,130.66069912884535,-72.61569483966207,112.73038572434393,-29.708298885848812,112.53123038405552,3.745058090630323,120.35477123950182,41.365343771034134,10,1.5904182596815986e-15,665.6293894712601,1.348850031726424e-15,665.6293894712601,2.220446049250313e-13,0.0,0.1151652262431444,1.2997218390297705,0.1151652262431444
0.02861086253234589,493.2816969284625,-39.59272768254537,463.46552935080297,-59.25675972926581,416.80508987847054,-29.0155748760576,46.66043947233243,-30.24118485320821,112.5765107606291,39.098440172208,350.8890185901738,-98.35519990147378,463.46552935080297,-59.25675972926581,29.816167577659552,19.664032046720433,0.0,0.0,129.91890925985373,-72.21296201430553,111.84853595913964,-29.484191716690788,109.12157337118046,3.341953829522538,112.5765107606291,39.098440172208,10,8.454748109426346e-16,617.9613672243871,1.834948168744869e-15,617.9613672243871,2.220446049250313e-13,0.0,0.09871305106555206,1.2832696638521786,0.09871305106555206
0.03147194878558048,492.06252229082327,-36.521143855672435,456.1919795753154,-59.8498456965732,417.37386645614396,-34.37736111659058,38.818113119171414,-25.47248457998262,110.10216767671456,38.00384884694955,346.08981189860083,-97.85369454352278,456.1919795753154,-59.8498456965732,35.87054271550788,23.32870184090076,0.0,0.0,128.95239297861303,-71.68283392776533,110.8231662223933,-29.221285511745478,106.31425269759451,3.0504248959880442,110.10216767671456,38.00384884694955,10,1.351543525609946e-15,573.2005705590964,2.084280251954164e-15,573.2005705590964,4.440892098500626e-13,0.0,0.08226087588796016,1.2668174886745864,0.08226087588796016
0.034333035038815074,494.16778911223923,-32.57455304364771,451.7470815368006,-59.77475596095323,420.78496711914903,-39.2062745389473,30.96211441765155,-20.56848142200593,109.77193313920023,37.30244300652333,341.9751483976004,-97.07719896747656,451.7470815368006,-59.77475596095323,42.42070757543866,27.200202917305518,0.0,0.0,127.82881625641491,-71.06357704024212,109.70562877616057,-28.933276748005987,104.4407033650249,2.919654820771541,109.77193313920023,37.30244300652333,10,8.558962147290868e-16,531.5330554530104,1.0332549911540495e-15,531.5330554530104,1.6653345369377348e-13,0.0,0.06580870071036804,1.2503653134969945,0.06580870071036804
0.03719412129204966,498.45097062971627,-28.128752143791736,449.0054356802944,-59.380165186317925,425.87411033688187,-43.82562601971631,23.131325343412527,-15.554539166601614,109.95441258653706,36.64206651455936,339.0510230937573,-96.02223170087723,449.0054356802944,-59.380165186317925,49.445534949421884,31.25141304252619,0.0,0.0,126.59870001986306,-70.3838440692445,108.53948860586891,-28.631907942483352,103.91283446802535,2.993520310850613,109.95441258653706,36.64206651455936,10,1.245524203224907e-15,492.87536900901534,2.210648188488798e-15,492.87536900901534,3.3306690738754696e-13,0.0,0.04935652553277614,1.2339131383194024,0.04935652553277614
0.04005520754528425,504.1489321113906,-23.370227000625903,447.22648385789654,-58.82527622692146,431.87529295623216,-48.37720622202815,15.351190901664381,-10.44807000489331,110.33173710104906,35.99096447329414,336.89474675684744,-94.81624070021556,447.22648385789654,-58.82527622692146,56.92244825349406,35.45504922629556,0.0,0.0,125.30046197155326,-69.66536938279481,107.4052303062714,-28.333132972438676,104.18905447902279,3.182261655017953,110.33173710104906,35.99096447329414,10,8.991981306757801e-16,457.3106598352818,1.1702544138326967e-15,457.3106598352818,4.440892098500626e-13,0.0,0.03290435035518402,1.2174609631418103,0.03290435035518402
0.042916293798518836,506.32893955391785,-19.571242556930876,441.50142656955546,-59.355032852878,433.8637605508674,-54.094300749014224,7.637666018688037,-5.2607321038637735,106.68488721364893,34.27157720783485,334.81653935590646,-93.6266100607128,441.50142656955546,-59.355032852878,64.82751298436236,39.78379029594712,0.0,0.0,123.96688745809764,-68.92616883588197,106.32035943785135,-28.043363279552523,104.52929245995745,3.342922054721697,106.68488721364893,34.27157720783485,10,9.05850894117777e-16,424.82749580766074,1.6276586237772833e-15,424.82749580766074,2.220446049250313e-13,0.0,0.01645217517759212,1.2010087879642184,0.01645217517759212
0.04577738005175343,479.8519249372461,-29.175783559570117,451.26740101618907,-48.955942275283064,451.26740101618907,-48.955942275283064,0.0,0.0,120.06345374196646,43.75440050333893,331.20394727422257,-92.71034277862194,451.26740101618907,-48.955942275283064,28.58452392105705,19.780158715712947,0.0,0.0,122.6300995984114,-68.18300941538455,105.26324799826396,-27.758887630577114,103.31059967754723,3.231554267339689,120.06345374196646,43.75440050333893,11,1.301135037369305e-15,576.2816535960341,1.5465951116275806e-15,576.2816535960341,2.220446049250313e-13,0.0,0.0,1.3161740142073626,0.0
0.04863846630498802,478.71829065234033,-25.445400531292965,444.44872357839154,-48.84310469997189,394.05202921846393,-16.58731754449002,50.39669435992761,-32.25578715548187,117.45411760377124,42.80544974394796,326.9946059746203,-91.6485544439198,444.44872357839154,-48.84310469997189,34.269567073948785,23.397704168678924,0.0,0.0,121.00554757033484,-67.24735805593683,104.21481992857836,-27.47672715960894,101.77423847570714,3.0755307716259352,117.45411760377124,42.80544974394796,10,1.1635456996046704e-15,536.5528710076742,1.113476150763543e-15,536.5528710076742,2.220446049250313e-13,0.0,0.11516522624314418,1.2997218390297705,0.11516522624314418
0.051499552558222604,480.3472490900777,-21.628547794506144,439.95873841490106,-48.8305704601417,396.96841648674956,-20.968308210423857,42.9903219281515,-27.862262249717844,116.70093375004903,41.98771402019068,323.257804664852,-90.81828448033232,439.95873841490106,-48.8305704601417,40.388510675176626,27.202022665635557,0.0,0.0,119.78813859634121,-66.57554282230137,103.16617904287835,-27.195864867183147,100.30348702563242,2.9531232091521957,116.70093375004903,41.98771402019068,10,1.0301235501661809e-15,500.3125998019139,1.5143991391501478e-15,500.3125998019139,2.220446049250313e-13,0.0,0.09871305106555206,1.2832696638521786,0.09871305106555206
0.054360638811457196,483.8437804616276,-17.474306821278688,436.9267459263779,-48.63899322673822,401.27284755416343,-25.243104084925676,35.653898372214485,-23.395889141812546,116.91906120702338,41.270710598229456,320.00768471935453,-89.90970382496766,436.9267459263779,-48.63899322673822,46.917034535249655,31.164686405459534,0.0,0.0,118.58015031085931,-65.9077872588488,102.13333799992931,-26.92012007499151,99.2941964085659,2.918203508872651,116.91906120702338,41.270710598229456,10,1.0363793152279189e-15,466.7499031650663,2.5293018968465845e-15,466.7499031650663,2.220446049250313e-13,0.0,0.08226087588796016,1.2668174886745864,0.08226087588796016
0.05722172506469178,487.79795126653386,-13.360062897051208,433.9681883592008,-48.617499164279934,405.5797015919299,-29.758855658114896,28.388486767270876,-18.858643506165038,116.68830720259588,40.324151568409164,317.27988115660486,-88.94165073268908,433.9681883592008,-48.617499164279934,53.829762907333084,35.25743626722873,0.0,0.0,117.38592366684748,-65.24697528445347,101.14758572551582,-26.656124698244454,98.74637176424156,2.961449250008812,116.68830720259588,40.324151568409164,10,1.0979592785971769e-15,435.8640338111537,1.551616852887477e-15,435.8640338111537,2.220446049250313e-13,0.0,0.06580870071036804,1.2503653134969945,0.06580870071036804
0.06008281131792637,491.879984247588,-9.318714125372189,430.7796126137162,-48.771016319760946,409.58642393429295,-34.519837235427076,21.19318867942326,-14.25117908433387,115.82660610286737,39.17473378687666,314.95300651084887,-87.94575010663766,430.7796126137162,-48.771016319760946,61.10037163387179,39.45230219438876,0.0,0.0,116.20886380070914,-64.59527987239375,100.21332935744014,-26.40538407252246,98.53081335269958,3.05491383827858,115.82660610286737,39.17473378687666,10,1.2654892270795826e-15,407.325295686661,1.3275328086127934e-15,407.325295686661,2.220446049250313e-13,0.0,0.04935652553277614,1.2339131383194024,0.04935652553277614
0.06294389757116096,493.1494692301273,-6.100820782857994,424.4477710154267,-49.82254083888421,410.38215895281763,-40.249461850556315,14.065612062609091,-9.573078988327893,111.75511496593523,37.158550814055644,312.6926560494914,-86.9810916529398,424.4477710154267,-49.82254083888421,68.70169821470058,43.721720056026214,0.0,0.0,115.05152360904619,-63.95426125172192,99.3191233073303,-26.164738340099163,98.3220091331149,3.1379079388812983,111.75511496593523,37.158550814055644,10,8.717338961542788e-16,381.04278170365166,1.0370861746695587e-15,381.04278170365166,2.220446049250313e-13,0.0,0.03290435035518402,1.2174609631418103,0.03290435035518402
0.06580498382439555,486.3985351985647,-4.834767802272104,409.7926809156318,-52.873412244785925,402.79024493906684,-48.050221663817155,7.002435976564982,-4.82319058096877,100.44198109456033,33.348021559398106,309.35069982107154,-86.22143380418404,409.7926809156318,-52.873412244785925,76.60585428293285,48.03864444251382,0.0,0.0,113.91815403268745,-63.32596974840779,98.43247150248745,-25.927685259850428,97.00007428589662,3.0322212040742187,100.44198109456033,33.348021559398106,10,9.910841189617462e-16,356.95814648590687,1.3058892799637727e-15,356.95814648590687,2.220446049250313e-13,0.0,0.0164521751775919,1.2010087879642184,0.0164521751775919
0.06866607007763015,463.26484813592873,-14.143858390258124,425.91400336674553,-40.478395368493864,425.91400336674553,-40.478395368493864,0.0,0.0,120.1534677671253,45.035800477051055,305.7605355996202,-85.5141958455449,425.91400336674553,-40.478395368493864,37.35084476918321,26.33453697823574,0.0,0.0,112.81716621384399,-62.714114649288575,97.54896089620567,-25.69141107134194,95.39440848957054,2.8913298750855887,120.1534677671253,45.035800477051055,11,1.0575947209264399e-15,487.9541102417339,1.3530214835634428e-15,487.9541102417339,2.220446049250313e-13,3.469446951953614e-18,0.0,1.3161740142073626,0.0
0.07152715633086473,464.5848697499484,-10.245613709883628,421.3214593878045,-40.34254490448376,374.9451532431803,-10.660613835771983,46.37630614462421,-29.681931068711776,119.38964119114505,44.293263664741275,301.9318181966595,-84.63580856922508,421.3214593878045,-40.34254490448376,43.263410362143865,30.09693119460013,0.0,0.0,111.48197860109133,-61.94391148037424,96.6893548237961,-25.460869393815003,93.76048477177198,2.7689723049642367,119.38964119114505,44.293263664741275,10,9.454729863543413e-16,455.6298857742665,1.0167972838038107e-15,455.6298857742665,3.3306690738754696e-13,0.0,0.11516522624314418,1.2997218390297707,0.11516522624314418
0.07438824258409932,467.39290425735874,-6.632030881215101,417.8996794344811,-40.597143080478105,378.28599938195237,-14.923694349926478,39.61368005252871,-25.673448730551627,119.06364975207042,43.336660094179905,298.83602968241064,-83.93380317465801,417.8996794344811,-40.597143080478105,49.49322482287768,33.965112199263004,0.0,0.0,110.51259107893704,-61.410287455076585,95.86112253579958,-25.23912772191651,92.46231606767407,2.715612002335064,119.06364975207042,43.336660094179905,10,1.1578440347775767e-15,426.42937216547375,1.4767042603900686e-15,426.42937216547375,3.3306690738754696e-13,0.0,0.09871305106555206,1.2832696638521786,0.09871305106555206
0.0772493288373339,473.04108558282854,-2.318357282092002,417.0279696529744,-40.22974350225476,384.1254052764215,-18.639466762773424,32.9025643765529,-21.59027673948134,120.86634386098306,42.95577710986966,296.1616257919913,-83.1855206121244,417.0279696529744,-40.22974350225476,56.01311592985418,37.91138622016276,0.0,0.0,109.55777451743276,-60.88409098788921,95.05619682104377,-25.02500831070789,91.54765445351478,2.7235786864726776,120.86634386098306,42.95577710986966,10,1.2046732171492497e-15,399.72050104751474,1.6476265878197128e-15,399.72050104751474,2.220446049250313e-13,0.0,0.08226087588796016,1.2668174886745867,0.08226087588796016
0.0801104150905685,469.4828299699822,-0.9196399383148304,406.6873241221709,-42.8284153324594,380.4480995068954,-25.39762565198845,26.239224615275475,-17.43078968047095,112.79036097275667,39.5752313053179,293.8969631494142,-82.40364663777727,406.6873241221709,-42.8284153324594,62.79550584781136,41.90877539414457,0.0,0.0,108.6170965003767,-60.36506385306265,94.26032363215853,-24.81516538353175,91.019543016879,2.776582598817086,112.79036097275667,39.5752313053179,10,1.259752868135507e-15,375.3165202449254,1.973400574776058e-15,375.3165202449254,4.440892098500626e-13,0.0,0.06580870071036804,1.2503653134969945,0.06580870071036804
0.08297150134380309,463.9633917431203,0.04235882773944155,394.1508677838125,-45.88875753779794,374.5306633421919,-32.69534631048907,19.620204441620615,-13.193411227308872,102.5406044761703,35.771344471644184,291.6102633076422,-81.66010200944214,394.1508677838125,-45.88875753779794,69.81252395930785,45.931116365537385,0.0,0.0,107.69019639336145,-59.853047537942295,93.45829886138492,-24.60608854348132,90.46176805289578,2.7990340719815308,102.5406044761703,35.771344471644184,10,1.0142176812925468e-15,352.8765665673589,1.0618944272239894e-15,352.8765665673589,4.440892098500626e-13,0.0,0.04935652553277592,1.2339131383194024,0.04935652553277592
0.08583258759703767,463.0162743460654,2.368718328411653,385.9801551060385,-47.584434239544265,372.937700132055,-38.70772356183102,13.042454973983524,-8.876710677713248,96.92196097011137,33.39346023718511,289.0581941359271,-80.97789447672938,385.9801551060385,-47.584434239544265,77.03611924002686,49.95315256795592,0.0,0.0,106.77618853553436,-59.347751558386854,92.65366584399725,-24.39760270988466,89.62833975639556,2.7674597915420946,96.92196097011137,33.39346023718511,10,8.806899023515392e-16,332.2321749577113,1.128208348081102e-15,332.2321749577113,2.220446049250313e-13,0.0,0.03290435035518402,1.2174609631418105,0.03290435035518402
0.08869367385027227,464.3867299051626,5.287071912333921,379.94855821508025,-48.66354792706906,373.445310829281,-44.184192681187454,6.503247385799227,-4.479355245881607,93.6592572128821,31.67221151397335,286.28930100219816,-80.33575944104241,379.94855821508025,-48.66354792706906,84.43817169008234,53.95061983940298,0.0,0.0,105.87657653152282,-58.8499108826603,91.8544157598088,-24.19111410658575,88.55830871086654,2.7052655482036556,93.6592572128821,31.67221151397335,10,1.0318365058619817e-15,313.2783982849093,1.3577192702071364e-15,313.2783982849093,2.220446049250313e-13,0.0,0.0164521751775919,1.2010087879642184,0.0164521751775919
0.09155476010350685,445.6405087622666,-3.428796703930427,401.61199904613386,-34.974074948099656,401.61199904613386,-34.974074948099656,0.0,0.0,118.1147330746457,44.73043152711084,283.49726597148816,-79.70450647521048,401.61199904613386,-34.974074948099656,44.028509716132774,31.54527824416923,0.0,0.0,104.99824559782473,-58.36256360442122,91.06966562090894,-23.9877568156352,87.4293547527545,2.6458139448459264,118.1147330746457,44.73043152711084,11,1.6411921285450886e-15,430.6942406318792,1.2734222098727904e-15,430.6942406318792,2.220446049250313e-13,0.0,0.0,1.3161740142073626,0.0
0.09441584635674144,447.3830524872372,-0.08114270490870723,397.66112153012324,-35.22793117399732,354.4789279334785,-7.590640737191137,43.182193596644765,-27.637290436806182,117.13397942145555,43.67144708629441,280.5271421086677,-78.89937826029175,397.66112153012324,-35.22793117399732,49.72193095711395,35.14678846908861,0.0,0.0,103.87485553779649,-57.71088304651216,90.30722424109615,-23.790168456836113,86.34506232977506,2.601673243056517,117.13397942145555,43.67144708629441,10,9.29238428452276e-16,403.0158087479339,1.2887465362142272e-15,403.0158087479339,2.220446049250313e-13,0.0,0.1151652262431444,1.2997218390297707,0.1151652262431444
0.09727693260997604,441.51984876340714,0.2410306825228261,385.90200742650086,-38.5378044459319,348.9623882309248,-14.597539613555142,36.939619195576086,-23.940264832376755,107.88472799847997,39.77477363139549,278.0172794280209,-78.3125780773274,385.90200742650086,-38.5378044459319,55.61784133690628,38.77883512845472,0.0,0.0,103.11070562428378,-57.29212785738474,89.55691767227586,-23.59649131133647,85.34965613146127,2.5760410913938045,107.88472799847997,39.77477363139549,10,1.533507649935274e-15,378.31084267661686,9.328305517306586e-16,378.31084267661686,4.440892098500626e-13,0.0,0.09871305106555206,1.2832696638521786,0.09871305106555206
0.10013801886321062,438.7087206122188,1.6802949508661698,377.01899391657776,-40.7366347325337,346.29360080975647,-20.575032167868414,30.725393106821286,-20.161602564665287,101.39550753355253,36.97507408304082,275.6234863830252,-77.71170881557447,377.01899391657776,-40.7366347325337,61.68972669564104,42.41692968339987,0.0,0.0,102.35373334567348,-56.87635426480747,88.79939318160683,-23.402340529505203,84.47035985574492,2.5669859787381526,101.39550753355253,36.97507408304082,10,9.018910486984126e-16,355.990705678246,1.1315767373819629e-15,355.990705678246,2.220446049250313e-13,0.0,0.08226087588796038,1.2668174886745864,0.08226087588796038
0.10299910511644521,438.1892305825773,3.8158346563600958,370.277959554621,-42.22188067783733,345.7410591606119,-25.92195293201047,24.536900394009137,-16.299927745826864,97.02089510238301,34.89330537035053,273.257064452238,-77.11518604818784,370.277959554621,-42.22188067783733,67.91127102795626,46.03771533419743,0.0,0.0,101.6037519545799,-56.46359948986513,88.02179788951662,-23.204575491492044,83.6315146081415,2.552988933169324,97.02089510238301,34.89330537035053,10,9.035826528460744e-16,335.7062446510113,1.1283978541712136e-15,335.7062446510113,2.220446049250313e-13,0.0,0.06580870071036804,1.2503653134969945,0.06580870071036804
0.1058601913696798,439.1604667759443,6.321574044771253,364.9040119687829,-43.297455892223894,346.5319431988338,-30.94333652676835,18.372068769949124,-12.354119365455546,94.13211532034727,33.24770608427913,270.77189664843564,-76.54516197650304,364.9040119687829,-43.297455892223894,74.2564548071614,49.61902993699515,0.0,0.0,100.86023900361087,-56.053885997496096,87.22796422933125,-23.003514478220765,82.68369341549352,2.5122384992138365,94.13211532034727,33.24770608427913,10,1.1961294068432288e-15,317.135515759829,1.2816853673573942e-15,317.135515759829,2.220446049250313e-13,0.0,0.04935652553277614,1.2339131383194024,0.04935652553277614
0.10872127762291439,440.53323245517373,8.84605233405177,359.8335823629824,-44.293908781214185,347.6045763372185,-35.970829642811964,12.229006025763908,-8.323079138402221,91.67152796284259,31.704019855253144,268.1620544001398,-75.99792863646732,359.8335823629824,-44.293908781214185,80.69965009219135,53.139961115265955,0.0,0.0,100.1222351413241,-55.647064574420014,86.44788180148669,-22.804256694067668,81.59193745732901,2.453392632020389,91.67152796284259,31.704019855253144,10,8.945702609162363e-16,300.0852940661436,7.754382228713412e-16,300.0852940661436,2.220446049250313e-13,0.0,0.03290435035518402,1.2174609631418103,0.03290435035518402
0.11158236387614898,443.57313720184237,11.896007695348437,356.35742513412436,-44.6848857812781,350.2517045812598,-40.4793415157053,6.105720552864568,-4.205544265572797,90.86835062910144,30.77899366042991,265.4890745050229,-75.463879441708,356.35742513412436,-44.6848857812781,87.21571206771803,56.580893476626535,0.0,0.0,99.39072695372614,-55.24370807222275,85.6965375629649,-22.61047540968928,80.40180998833183,2.3903040402040645,90.86835062910144,30.77899366042991,10,8.389989231239144e-16,284.4255838878856,8.400434238013602e-16,284.4255838878856,2.220446049250313e-13,0.0,0.01645217517759212,1.2010087879642184,0.01645217517759212
0.11444345012938356,419.8003045750683,1.1574157681147739,372.2818484338825,-33.329652398261715,372.2818484338825,-33.329652398261715,0.0,0.0,109.4404051785919,41.60372844442723,262.84144325529047,-74.93338084268888,372.2818484338825,-33.329652398261715,47.51845614118584,34.48706816637649,0.0,0.0,98.67148925368372,-54.8463323334655,84.96637617399074,-22.420956840171428,79.20357782761603,2.33390833094802,109.4404051785919,41.60372844442723,11,1.1454028187878978e-15,393.55362521100386,8.902799024254851e-16,393.55362521100386,2.220446049250313e-13,6.938893903907228e-18,0.0,1.3161740142073626,0.0
0.11730453638261816,413.883303460529,1.6199624874204588,361.24544413193473,-36.062912536542086,320.6325668081846,-10.070063252614403,40.612877323750126,-25.992849283927683,101.19909294289117,38.15760022262046,260.04635118904355,-74.22051275916257,361.24544413193473,-36.062912536542086,52.63785932859427,37.682875023962545,0.0,0.0,97.69587921787323,-54.2781408736307,84.24677347351088,-22.234263193358238,78.10369849765944,2.2918913078263756,101.19909294289117,38.15760022262046,10,1.269668802063936e-15,368.84754194888177,2.1000081924740827e-15,368.84754194888177,4.440892098500626e-13,0.0,0.1151652262431444,1.2997218390297705,0.1151652262431444
0.12016562263585275,411.0517708140018,2.691958248585024,353.1888702430118,-38.158693134503125,318.4025369881637,-15.613920650934716,34.7863332548481,-22.54477248356841,95.44081471494955,35.56729692037585,257.7480555280622,-73.72599005487896,353.1888702430118,-38.158693134503125,57.862900570989986,40.85065138308815,0.0,0.0,97.07702317455605,-53.94195629670756,83.52755378248906,-22.048170541542106,77.1434785710171,2.264136783370681,95.44081471494955,35.56729692037585,10,9.015442846397078e-16,347.0547150438556,8.612668255377743e-16,347.0547150438556,2.220446049250313e-13,0.0,0.09871305106555206,1.2832696638521786,0.09871305106555206
0.12302670888908733,410.23927299162017,4.406084857702972,347.06878309659334,-39.56469001538133,318.0993191479305,-20.555262089824197,28.96946394866285,-19.009427925557134,91.5625920834815,33.66043637440653,255.50619101311185,-73.22512638978787,347.06878309659334,-39.56469001538133,63.17048989502681,43.9707748730843,0.0,0.0,96.45732993155079,-53.60415960098402,82.80199586847627,-21.860982015792892,76.24686521308479,2.24001522698903,91.5625920834815,33.66043637440653,10,8.582981361167535e-16,327.5963035733665,9.90316009057124e-16,327.5963035733665,1.3877787807814457e-13,0.0,0.08226087588796038,1.2668174886745864,0.08226087588796038
0.12588779514232193,410.41459741815896,6.3410225573855925,341.87641051275676,-40.68395109603384,318.7145905460254,-25.297462626855577,23.161819966731343,-15.38648846917826,88.71428158459658,32.0549624159417,253.1621289281602,-72.73891351197554,341.87641051275676,-40.68395109603384,68.53818690540218,47.02497365341943,0.0,0.0,95.83829221750078,-53.265901692575014,82.07001769155659,-21.6725630020739,75.25381901910286,2.1995511826733605,88.71428158459658,32.0549624159417,10,1.0867468345638983e-15,309.99823140144,1.720625505056809e-15,309.99823140144,2.220446049250313e-13,0.0,0.06580870071036804,1.2503653134969945,0.06580870071036804
0.1287488813955565,411.6322269252659,8.57778811299049,337.6879558411398,-41.41856023113027,320.3252922779074,-29.743190050940427,17.36266356323239,-11.675370180189844,87.01104212640794,30.854103771659148,250.67691371473188,-72.27266400278944,337.6879558411398,-41.41856023113027,73.94427108412611,49.99634834412076,0.0,0.0,95.22040557674211,-52.92786004138597,81.34039937438928,-21.484839888394667,74.1161087636005,2.1400359269911817,87.01104212640794,30.854103771659148,10,9.394910390234157e-16,293.9504280296691,9.450648849961554e-16,293.9504280296691,1.6653345369377348e-13,0.0,0.04935652553277614,1.2339131383194024,0.04935652553277614
0.1316099676487911,414.07192969878247,11.158148899691334,334.70412238120593,-41.71123735194578,323.13345375967685,-33.83621814700007,11.57066862152908,-7.8750192049457155,86.53895618107572,30.10274113088694,248.16516620013022,-71.81397848283272,334.70412238120593,-41.71123735194578,79.36780731757655,52.86938625163712,0.0,0.0,94.60338083495853,-52.59023091439734,80.62975189124941,-21.301444405370532,72.93203347392229,2.077696836935125,86.53895618107572,30.10274113088694,10,8.202576238183775e-16,279.2511811587766,1.285180534206202e-15,279.2511811587766,2.220446049250313e-13,0.0,0.03290435035518402,1.2174609631418103,0.03290435035518402
0.13447105390202568,406.7687893021973,9.922185220989668,321.9800828064821,-45.70778283402595,316.19617681507293,-41.723899623124254,5.783905991409142,-3.983883210901695,76.21299592968977,25.64240337578932,245.7670868767923,-71.35018620981525,321.9800828064821,-45.70778283402595,84.78870649571526,55.62996805501562,0.0,0.0,93.98810490828535,-52.253539389165354,79.94445118742476,-21.12433185170901,71.83453078108221,2.027685031059093,76.21299592968977,25.64240337578932,10,8.854548428252243e-16,265.7584292927399,7.58747060221688e-16,265.7584292927399,1.1102230246251565e-13,0.0,0.01645217517759212,1.2010087879642184,0.01645217517759212
0.1373321401552603,383.2207229506582,-0.7697052530784276,335.7823896411671,-35.51934868937715,335.7823896411671,-35.51934868937715,0.0,0.0,92.22395153960451,35.355086859051525,243.5584381015626,-70.87443554842868,335.7823896411671,-35.51934868937715,47.43833330949113,34.749643436298726,0.0,0.0,93.3791711991659,-51.91979894243865,79.27629412784641,-20.951722286700146,70.90297277455028,1.9970856807101143,92.22395153960451,35.355086859051525,11,1.0569265214680495e-15,370.73159433094276,8.277367006668724e-16,370.73159433094276,2.220446049250313e-13,0.0,0.0,1.3161740142073626,0.0
0.14019322640849488,381.53371314191025,0.7134428916221793,329.7602643860928,-36.6847639576074,291.170893457291,-11.985740680899113,38.58937092880177,-24.69902327670829,88.47412621286661,33.56805136736487,241.28613817322622,-70.25281532497232,329.7602643860928,-36.6847639576074,51.77344875581749,37.39820684922958,0.0,0.0,92.5686466162172,-51.451865118585886,78.61452752635697,-20.781541222799653,70.10296403065209,1.9805910164132001,88.47412621286661,33.56805136736487,10,9.708825714482982e-16,347.8770927681292,1.4341227363446862e-15,347.8770927681292,2.220446049250313e-13,0.0,0.11516522624314418,1.2997218390297707,0.11516522624314418
0.14305431266172947,380.8812641398776,2.08842716066998,324.73658805357746,-37.89415897976377,291.6526927247493,-16.451932843042812,33.08389532882819,-21.44222613672096,85.40952476061192,31.913566401501875,239.32706329296556,-69.80772538126571,324.73658805357746,-37.89415897976377,56.144676086300116,39.98258614043375,0.0,0.0,92.03374248827046,-51.163094030856854,77.95061473835594,-20.611825567842942,69.34270606633918,1.9671942174340984,85.40952476061192,31.913566401501875,10,9.15197310146491e-16,327.9297822598771,1.2246613358228121e-15,327.9297822598771,1.1102230246251565e-13,0.0,0.09871305106555206,1.2832696638521786,0.09871305106555206
0.14591539891496405,380.6674017897802,3.5407182511007917,320.13347916337295,-38.94788229217485,292.5546272961147,-20.850496207074144,27.578851867258265,-18.09738608510071,82.80001489440733,30.419740146419073,237.33346426896563,-69.36762243859391,320.13347916337295,-38.94788229217485,60.53392262640721,42.488600543275645,0.0,0.0,91.49938841201978,-50.87373536801765,77.28308634707346,-20.44193085780556,68.55098950987241,1.948043787229274,82.80001489440733,30.419740146419073,10,9.336898302032262e-16,310.3093591564411,8.554612906939191e-16,310.3093591564411,1.6653345369377348e-13,0.0,0.08226087588796016,1.2668174886745867,0.08226087588796016
0.14877648516819864,383.09819596469873,6.011003480992748,318.1742014761296,-38.892427819204244,296.10101922458625,-24.22888612805096,22.073182251543358,-14.663541691153284,82.91238083090674,30.05138835690144,235.26182064522288,-68.94381617610568,318.1742014761296,-38.892427819204244,64.92399448856914,44.90343130019699,0.0,0.0,90.96733485801778,-50.585040271064315,76.6183714866893,-20.272930571624464,67.67611430051582,1.914154666583073,82.91238083090674,30.05138835690144,10,9.715958333530166e-16,294.44618767901517,2.0385922514039324e-15,294.44618767901517,1.1102230246251565e-13,0.0,0.06580870071036804,1.2503653134969945,0.06580870071036804
0.15163757142143322,383.2724232178892,7.385673636214399,313.9737888303986,-39.829933000997954,297.40866911548136,-28.690761123771836,16.565119714917216,-11.139171877226119,80.81811977021457,28.705635847212477,233.15566906018398,-68.53556884821047,313.9737888303986,-39.829933000997954,69.29863438749062,47.21560663721235,0.0,0.0,90.43823255211805,-50.29765128183527,75.96740819638289,-20.107131023145833,66.75002831168302,1.869213456770666,80.81811977021457,28.705635847212477,10,7.887983660693185e-16,280.03310907672824,2.4014002590354817e-15,280.03310907672824,2.220446049250313e-13,0.0,0.04935652553277614,1.2339131383194026,0.04935652553277614
0.1544986576746678,379.1954551198957,6.987413212681879,305.55290065055,-42.42756729793436,294.5006762208199,-34.90537091388296,11.052224429730074,-7.522196384051398,74.4471766946558,25.704964880547863,231.1057239558942,-68.13253217848225,305.55290065055,-42.42756729793436,73.64255446934571,49.41498051061624,0.0,0.0,89.91203719947634,-50.011753796372545,75.33998773930375,-19.946928318749407,65.85369901711411,1.826149936639709,74.4471766946558,25.704964880547863,10,9.329517330270942e-16,266.86285080001517,8.835447092937833e-16,266.86285080001517,2.220446049250313e-13,0.0,0.03290435035518402,1.2174609631418105,0.03290435035518402
0.15735974392790242,373.0245427025481,5.8191939297922275,295.0830785182167,-45.67351153962153,289.55150415282986,-41.86342722334561,5.531574365386859,-3.810084316275919,65.91207278673245,22.052822889990793,229.17100573148423,-67.7263344296123,295.0830785182167,-45.67351153962153,77.9414641843314,51.49270546941376,0.0,0.0,89.39044321476524,-49.72812500985877,74.73450634864409,-19.79246371547744,65.0460561680749,1.7942542957239311,65.91207278673245,22.052822889990793,10,8.874744194135141e-16,254.7864678760425,1.868693099860883e-15,254.7864678760425,1.1102230246251565e-13,0.0,0.0164521751775919,1.2010087879642184,0.0164521751775919
0.160220830181137,352.323297400943,-3.8198543755052015,308.17132236002374,-36.335300357508714,308.17132236002374,-36.335300357508714,0.0,0.0,80.81948083029225,30.98091813966544,227.35184152973147,-67.31621849717419,308.17132236002374,-36.335300357508714,44.151975040919254,32.51544598200351,0.0,0.0,88.87953807991794,-49.44936720229214,74.13992146118491,-19.640887475488427,64.33238198862864,1.7740361806063731,80.81948083029225,30.98091813966544,11,8.695159675097832e-16,359.13878426353097,1.2968520608890764e-15,359.13878426353097,1.1102230246251565e-13,0.0,0.0,1.3161740142073626,0.0
0.1630819164343716,350.71878730839705,-2.7676019329647303,303.07335644131655,-37.354636436780964,266.1260829539123,-13.704514261000384,36.94727348740423,-23.65012217578058,77.64141411891605,29.44286195738656,225.43194232240046,-66.7974983941675,303.07335644131655,-37.354636436780964,47.6454308670805,34.587034503816234,0.0,0.0,88.21194556188286,-49.06520085070734,73.55069342512506,-19.49111466083263,63.66930333539254,1.7588171173724803,77.64141411891605,29.44286195738656,10,8.475531790894721e-16,337.3051556685284,1.2182246005831828e-15,337.3051556685284,2.220446049250313e-13,0.0,0.1151652262431444,1.2997218390297707,0.1151652262431444
0.16594300268760617,349.6585420957347,-1.9340523307424249,298.5239547260632,-38.51450396139256,266.8145912480632,-17.961828089750924,31.709363478,-20.55267587164164,74.78478129310768,27.912119787712882,223.73917343295557,-66.42662374910549,298.5239547260632,-38.51450396139256,51.13458736967144,36.58045163065014,0.0,0.0,87.76726059974337,-48.8250276928554,72.96540916095407,-19.342661751647398,63.00650367225811,1.7410656953973174,74.78478129310768,27.912119787712882,10,1.0794985782153747e-15,318.4170355432271,1.175923609927902e-15,318.4170355432271,2.220446049250313e-13,0.0,0.09871305106555206,1.2832696638521786,0.09871305106555206
0.16880408894084076,351.34459256133664,-0.006042078158479569,296.7379097869015,-38.49256291571163,270.2749953276489,-21.12671789602186,26.4629144592526,-17.365845019689772,74.70720029277483,27.57579580631011,222.0307094941267,-66.06835872202171,296.7379097869015,-38.49256291571163,54.60668277443511,38.48652083755315,0.0,0.0,87.32987219607602,-48.588138890483016,72.3879907163579,-19.19606615804055,62.312846581692796,1.715846326501854,74.70720029277483,27.57579580631011,10,1.017631654060295e-15,301.88611530277905,2.0000142270232527e-15,301.88611530277905,2.220446049250313e-13,0.0,0.08226087588796038,1.2668174886745867,0.08226087588796038
0.17166517519407534,350.62916148502336,0.725819984279255,292.57925067361214,-39.5714539383504,271.373754561124,-25.483954051252994,21.205496112488163,-14.087499887097408,72.29002670329231,26.15775044204245,220.28922397031985,-65.7292043803929,292.57925067361214,-39.5714539383504,58.04991081141122,40.29727392262966,0.0,0.0,86.90028432870531,-48.35509428140021,71.8255494590243,-19.05275309970413,61.56339018259023,1.678643000711439,72.29002670329231,26.15775044204245,10,1.1149524303017163e-15,287.0655070807524,1.224365577044156e-15,287.0655070807524,2.220446049250313e-13,0.0,0.06580870071036804,1.2503653134969945,0.06580870071036804
0.17452626144730995,349.95281880339377,1.371417852720171,288.49938900175624,-40.63449211435213,272.5652800540662,-29.919485322994376,15.93410894769005,-10.715006791357752,69.93639917796645,24.76939738048673,218.5629898237898,-65.40388949483886,288.49938900175624,-40.63449211435213,61.45342980163751,42.0059099670723,0.0,0.0,86.47825056060942,-48.12600685459154,71.28378869997933,-18.914258648470817,60.800950563201035,1.6363760082235217,69.93639917796645,24.76939738048673,10,1.2935811734006078e-15,273.6440018425317,9.0952225611299e-16,273.6440018425317,1.6653345369377348e-13,0.0,0.04935652553277592,1.2339131383194024,0.04935652553277592
0.17738734770054454,343.6016984698039,-0.29666813667144254,278.79433086687817,-43.90341845624383,268.149058002394,-36.65814924568181,10.645272864484184,-7.2452692105620145,61.86579975202573,21.1780016410071,216.92853111485246,-65.08142009725094,278.79433086687817,-43.90341845624383,64.80736760292577,43.606750319572384,0.0,0.0,86.06315306474019,-47.900711742582175,70.7683635099859,-18.78204932344041,60.09701454012635,1.601340968771666,61.86579975202573,21.1780016410071,10,1.0234921481754594e-15,261.407580522813,1.0386502560730271e-15,261.407580522813,1.1102230246251565e-13,0.0,0.03290435035518402,1.2174609631418103,0.03290435035518402
0.18024843395377912,339.68003591815017,-0.9768909418871559,271.5772133462707,-46.07208095660789,266.2420091095271,-42.39724839461846,5.335204236743607,-3.674832561989433,56.162820487951954,18.68542320605507,215.41439285831873,-64.75750416266295,271.5772133462707,-46.07208095660789,68.10282257187949,45.095190014720735,0.0,0.0,85.6558492678033,-47.679575994618915,70.27650627575825,-18.655939839415737,59.482037314757186,1.5780116713716907,56.162820487951954,18.68542320605507,10,9.355489231468072e-16,250.20146449353433,2.270539250899715e-15,250.20146449353433,1.1102230246251565e-13,0.0,0.0164521751775919,1.2010087879642184,0.0164521751775919
0.1831095202070137,322.5577436812036,-9.245190554889657,283.9879146065465,-37.68317753457177,283.9879146065465,-37.68317753457177,0.0,0.0,69.98997037817611,26.75178570375771,213.99794422837036,-64.43496323832947,283.9879146065465,-37.68317753457177,38.569829074657115,28.437986979682112,0.0,0.0,85.26099035670515,-47.46456280289016,69.800402084898,-18.533800031322137,58.936551786767204,1.5633995958828208,69.98997037817611,26.75178570375771,11,9.002427487553898e-16,357.3387264181854,1.5470304714445843e-15,357.3387264181854,1.1102230246251565e-13,0.0,0.0,1.3161740142073626,0.0
0.1859706064602483,321.4449392928406,-8.435076767448429,280.1582198383857,-38.427033493116085,244.56903657611747,-15.644825912787553,35.58918326226825,-22.78220758032853,67.71523447073216,25.563110867604195,212.4429853676535,-63.99014436072025,280.1582198383857,-38.427033493116085,41.2867194544549,29.991956725667656,0.0,0.0,84.68355921780392,-47.12710872751465,69.33723062668427,-18.41502485409398,58.42219552316534,1.551989220888366,67.71523447073216,25.563110867604195,10,1.237045281636468e-15,335.83656047431907,1.313389703708959e-15,335.83656047431907,1.6653345369377348e-13,0.0,0.1151652262431444,1.2997218390297707,0.1151652262431444
0.18883169271348288,322.55270176047463,-7.0590152505352926,278.56910287833995,-38.53004973905922,247.97406799043608,-18.698745159225183,30.595034887903864,-19.83130457983404,67.40606547623577,25.188626901814196,211.16303740210418,-63.71867664087341,278.56910287833995,-38.53004973905922,43.98359888213469,31.47103448852393,0.0,0.0,84.36681398750848,-46.958353040340214,68.88687089021658,-18.29951834928837,57.90935252437913,1.5391947487551576,67.40606547623577,25.188626901814196,10,1.0886364926669087e-15,317.3621074617767,1.1563973867445106e-15,317.3621074617767,1.1102230246251565e-13,0.0,0.09871305106555228,1.2832696638521786,0.09871305106555228
0.19169277896671746,320.86921714404684,-7.055767246449143,274.2167973954867,-39.925712085193226,248.6401841516573,-23.140968437498145,25.5766132438294,-16.78474364769508,64.32210158718458,23.533356315981223,209.89469580830215,-63.45906840117448,274.2167973954867,-39.925712085193226,46.65241974856014,32.86994483874408,0.0,0.0,84.05825153644815,-46.79336969672411,68.4521669420115,-18.18781976925758,57.3842773298425,1.5221210648072017,64.32210158718458,23.533356315981223,10,9.661605466616878e-16,301.3128759774455,1.0215697655632102e-15,301.3128759774455,1.1102230246251565e-13,0.0,0.08226087588796038,1.2668174886745867,0.08226087588796038
0.19455386521995208,320.71268764602615,-6.463833012039068,271.42668093689673,-40.64820767862082,250.89583558166254,-27.008631848381867,20.53084535523419,-13.639575830238954,62.80247059631156,22.568836314364425,208.6242103405852,-63.21704399298528,271.42668093689673,-40.64820767862082,49.28600670912942,34.18437466658175,0.0,0.0,83.75866467827956,-46.6327647244343,68.03741519940199,-18.080932794371734,56.828130462903616,1.4966535258207827,62.80247059631156,22.568836314364425,10,1.18877066617624e-15,286.9742554355199,1.269660278536851e-15,286.9742554355199,8.326672684688674e-14,0.0,0.06580870071036804,1.2503653134969945,0.06580870071036804
0.19741495147318666,317.8538559747018,-7.072529884498657,265.975810122583,-42.4834495238033,250.5215892293566,-32.09103250001195,15.45422089322642,-10.392417023791353,58.60282092326355,20.507204407071363,207.37298919931948,-62.99065393087467,265.975810122583,-42.4834495238033,51.878045852118774,35.410919639304645,0.0,0.0,83.46823400328634,-46.47679402545975,67.64551119382502,-17.979796933141024,56.25924400220814,1.465937027726099,58.60282092326355,20.507204407071363,10,1.2783243864199226e-15,274.0251967382491,1.7721407302656074e-15,274.0251967382491,1.1102230246251565e-13,0.0,0.04935652553277614,1.2339131383194024,0.04935652553277614
0.20027603772642125,313.5271952213692,-8.269648623636975,259.10412410490096,-44.81667761145877,248.76123058176645,-37.777176262453764,10.342893523134506,-7.039501349005008,52.919165215986425,17.955929834610565,206.18495888891448,-62.772607446069316,259.10412410490096,-44.81667761145877,54.42307111646821,36.5470289878218,0.0,0.0,83.18677896769495,-46.32547794950461,67.27856920280881,-17.88513102891627,55.71961071841073,1.4380015323515565,52.919165215986425,17.955929834610565,10,9.650734637098173e-16,262.24243858260877,1.1006974847994116e-15,262.24243858260877,1.1102230246251565e-13,0.0,0.03290435035518402,1.2174609631418103,0.03290435035518402
0.20313712397965583,310.7050632087109,-8.874469037295121,253.78861504064568,-46.46541802948923,248.59577870546934,-42.888642657282816,5.192836335176338,-3.576775372206413,48.70342079536243,16.093006963742155,205.08519424528325,-62.55842499323143,253.78861504064568,-46.46541802948923,56.91644816806524,37.59094899219411,0.0,0.0,82.91514573898287,-46.17920858564945,66.93375458527301,-17.796536276354296,55.23629392102739,1.41731986877231,48.70342079536243,16.093006963742155,10,9.387463983287475e-16,251.4644494465474,1.3293286023954068e-15,251.4644494465474,1.1102230246251565e-13,0.0,0.01645217517759212,1.2010087879642184,0.01645217517759212
0.20599821023289042,296.5904774464834,-15.919818076023233,264.76785147150207,-39.31032538325391,264.76785147150207,-39.31032538325391,0.0,0.0,60.696609863329016,23.03787815526661,204.0712416081731,-62.348203538520565,264.76785147150207,-39.31032538325391,31.82262597498132,23.390507307230678,0.0,0.0,82.6569798798444,-46.039563596218244,66.60452787921768,-17.71218047741216,54.80973384911099,1.4035405351098618,60.696609863329016,23.03787815526661,11,9.149379822886506e-16,365.11623039717364,9.511857966262355e-16,365.11623039717364,1.1102230246251565e-13,0.0,0.0,1.3161740142073626,0.0
0.208859296486125,295.574567169992,-15.454277872053133,261.67559427460293,-39.9893820916912,227.0199959824278,-17.803545183711122,34.65559829217514,-22.185836907980075,58.76265467489556,22.01852235592763,202.9129395997074,-62.007904447618856,261.67559427460293,-39.9893820916912,33.89897289538909,24.535104219638065,0.0,0.0,82.20465815089456,-45.76975411387109,66.28814007372733,-17.63144889655477,54.4201413750855,1.3932985628070256,58.76265467489556,22.01852235592763,10,9.60842664783228e-16,343.2959246095032,1.8841927402652567e-15,343.2959246095032,1.1102230246251565e-13,0.0,0.1151652262431444,1.2997218390297707,0.1151652262431444
0.2117203827393596,296.4242757386118,-14.567738097211869,260.4677077725076,-40.186104068949874,230.6242589154906,-20.841225305634225,29.843448857016995,-19.34487876331565,58.414262076382656,21.66198246017256,202.05344569612498,-61.848086529122455,260.4677077725076,-40.186104068949874,35.95656796610422,25.618365971738005,0.0,0.0,82.02555526291025,-45.67679220935895,65.98389125710047,-17.554136291881036,54.04399917611425,1.3828419721175393,58.414262076382656,21.66198246017256,10,9.453852002234135e-16,324.6333173110642,7.980256330798408e-16,324.6333173110642,1.1102230246251565e-13,0.0,0.09871305106555206,1.2832696638521783,0.09871305106555206
0.2145814689925942,297.11454043849005,-13.875048955013295,259.12357540694234,-40.51264737262875,234.13162916290855,-24.111191466905836,24.991946244033784,-16.401455905722912,57.909280685764756,21.18765598325536,201.21429472117757,-61.7003033558841,259.12357540694234,-40.51264737262875,37.99096503154771,26.637598417615454,0.0,0.0,81.8570417220989,-45.58920369548261,65.69338638442522,-17.480517454500678,53.66386661465343,1.3694177940991992,57.909280685764756,21.18765598325536,10,8.992869355934072e-16,308.50470290999806,1.6589929677958284e-15,308.50470290999806,1.1102230246251565e-13,0.0,0.08226087588796016,1.2668174886745864,0.08226087588796016
0.21744255524582878,296.34991652581476,-13.910356587281864,256.35148086873295,-41.501162554494016,236.25429493621377,-28.14949421032614,20.09718593251918,-13.351668344167877,55.976884903068594,20.06820977655559,200.37459596566435,-61.56937233104961,256.35148086873295,-41.501162554494016,39.99843565708183,27.59080596721215,0.0,0.0,81.6991702287636,-45.50713362557567,65.41977278997867,-17.411275840694778,53.25565294692207,1.349037135220847,55.976884903068594,20.06820977655559,10,1.0408317328026905e-15,294.13140557129145,1.321273363872627e-15,294.13140557129145,1.1102230246251565e-13,0.0,0.06580870071036804,1.2503653134969945,0.06580870071036804
0.22030364149906337,296.00717681706226,-13.840004696343026,254.03122841475835,-42.31664204225456,238.87622831386975,-32.12536493690894,15.1550001008886,-10.19127710534562,54.48455889218582,19.137571325791328,199.54666952257253,-61.45421336804587,254.03122841475835,-42.31664204225456,41.97594840230393,28.47663734591153,0.0,0.0,81.55162233072897,-45.430508872050524,65.16605558768275,-17.34720777298204,52.82899160416079,1.323503276986692,54.48455889218582,19.137571325791328,10,8.460277355117123e-16,281.1769469002643,2.045719262443473e-15,281.1769469002643,1.249000902703301e-13,0.0,0.04935652553277614,1.2339131383194024,0.04935652553277614
0.22316472775229795,291.3813864038319,-15.516023900924441,247.4602396398594,-44.81035537832963,237.2992114943679,-37.894613136941445,10.161028145491485,-6.9157422413881875,48.69109779932144,16.53885885875828,198.76914184053794,-61.34921423708792,247.4602396398594,-44.81035537832963,43.92114676397255,29.29433147740519,0.0,0.0,81.41385923254711,-45.359109487138795,64.93631558296035,-17.289228603981712,52.418967025030476,1.2991238540325938,48.69109779932144,16.53885885875828,10,8.529173175303858e-16,269.4057327302269,1.5159758511779206e-15,269.4057327302269,1.1102230246251565e-13,0.0,0.03290435035518402,1.2174609631418103,0.03290435035518402
0.22602581400553254,288.1191777284458,-16.62433904141851,242.2868517438536,-46.668002794296854,237.1760225571572,-43.14771076813818,5.110829186696378,-3.520292026158671,44.21757782482038,14.582473184477351,198.0692739190332,-61.25047597877419,242.2868517438536,-46.668002794296854,45.8323259845922,30.043663752878345,0.0,0.0,81.2866912825035,-45.2932387098566,64.7290674544173,-17.237096403793664,52.05351518211241,1.2798591348760482,44.21757782482038,14.582473184477351,10,8.811778227550241e-16,258.6475442023082,1.0486464235566431e-15,258.6475442023082,1.1102230246251565e-13,0.0,0.01645217517759212,1.2010087879642184,0.01645217517759212
0.22888690025876712,276.14042656768913,-22.756319655641715,251.19714180513964,-40.95568412165082,251.19714180513964,-40.95568412165082,0.0,0.0,53.743407103946815,20.201292765885476,197.45373470119281,-61.156976887536274,251.19714180513964,-40.95568412165082,24.94328476254947,18.199364466009104,0.0,0.0,81.17408679915343,-45.234544131746375,64.53837634573169,-17.188959720074962,51.74127155630768,1.266526964285056,53.743407103946815,20.201292765885476,11,1.0758518852722532e-15,383.4161660337094,1.0813442848218976e-15,383.4161660337094,1.1102230246251565e-13,0.0,0.0,1.3161740142073626,0.0
0.23174798651200174,275.0405106577549,-22.709166428936438,248.50654109917141,-41.76048846583757,214.26976206919045,-19.841267044368237,34.236779029980966,-21.91922142146933,51.75891174289001,19.202686175441244,196.74762935628144,-60.96317464127888,248.50654109917141,-41.76048846583757,26.533969558583493,19.05132203690113,0.0,0.0,80.91357835261599,-45.076118558754004,64.3624074458733,-17.144505694142634,51.47164355779215,1.2574496116177727,51.75891174289001,19.202686175441244,10,9.578365768233609e-16,360.5777349481313,1.5338261882766661e-15,360.5777349481313,2.220446049250313e-13,0.0,0.11516522624314418,1.2997218390297705,0.11516522624314418
0.23460907276523632,275.6505480609734,-22.237496016071546,247.53442910814647,-42.096756743953705,217.99789910968514,-22.949906102666432,29.536529998461333,-19.146850641287273,51.240464142297625,18.81349732893822,196.29396496584883,-60.9102540728919,247.53442910814647,-42.096756743953705,28.116118952826906,19.85926072788216,0.0,0.0,80.86844483259834,-45.056724050914994,64.1999090756193,-17.10356437997803,51.2256110576312,1.2500343580010949,51.240464142297625,18.81349732893822,10,8.620231247074551e-16,341.0816730007568,1.519109524887119e-15,341.0816730007568,8.326672684688674e-14,0.0,0.09871305106555206,1.2832696638521783,0.09871305106555206
0.2374701590184709,274.60182975903973,-22.601840525663487,244.9141173126444,-43.22374491232179,220.13426296758567,-26.960959609743355,24.779854345058737,-16.262785302578436,49.04406416643966,17.643175677922827,195.87005314620475,-60.866920590244604,244.9141173126444,-43.22374491232179,29.687712446395324,20.621904386658304,0.0,0.0,80.8339494765822,-45.04278998264326,64.05037461561813,-17.066120226921548,50.98572905400442,1.2419896193202007,49.04406416643966,17.643175677922827,10,9.792584278352443e-16,324.27471699254124,1.3651437742651164e-15,324.27471699254124,1.1102230246251565e-13,0.0,0.08226087588796016,1.2668174886745864,0.08226087588796016
0.2403312452717055,275.17381791661586,-22.322981105005653,243.9265361607616,-43.66142843938903,223.96401696325847,-30.398967122759174,19.962519197503127,-13.262461316629853,48.47634156453938,17.175710422036346,195.45019459622222,-60.8371388614254,243.9265361607616,-43.66142843938903,31.247281755854267,21.338447334383375,0.0,0.0,80.80942069280368,-45.03404276727464,63.91442405176426,-17.032414081442138,50.726349851654255,1.2293179872913953,48.47634156453938,17.175710422036346,10,1.0718965578435723e-15,309.31488801019424,2.822173009654499e-15,309.31488801019424,1.1102230246251565e-13,0.0,0.06580870071036804,1.2503653134969945,0.06580870071036804
0.24319233152494008,275.4484076513172,-22.250213807329004,242.6545192229338,-44.258720751710825,227.5743391795709,-34.117650702315785,15.080180043362901,-10.14107004939504,47.61966798356109,16.562209485512817,195.03485123937273,-60.82093023722365,242.6545192229338,-44.258720751710825,32.79388842838338,22.00850694438182,0.0,0.0,80.7939970018556,-45.030084199393286,63.793809995777366,-17.002955428935515,50.44704424173977,1.2121093911051588,47.61966798356109,16.562209485512817,10,9.447617304398997e-16,295.8442422467564,9.583091424902315e-16,295.8442422467564,1.1102230246251565e-13,0.0,0.04935652553277614,1.2339131383194024,0.04935652553277614
0.24605341777817466,275.5382922331688,-22.323111664015197,241.21119100189588,-44.955189045596086,231.08272038100142,-38.06157481466076,10.128470620894461,-6.893614230935327,46.55944758511676,15.859284874683127,194.65174341677914,-60.81447392027921,241.21119100189588,-44.955189045596086,34.327101231272906,22.63207738158089,0.0,0.0,80.78676053662994,-45.03046483553618,63.69221878816244,-16.97858076055202,50.17276409198681,1.1945716758089375,46.55944758511676,15.859284874683127,10,1.3245523890993845e-15,283.6112909438132,1.3208078724954085e-15,283.6112909438132,1.1102230246251565e-13,0.0,0.03290435035518402,1.2174609631418103,0.03290435035518402
0.24891450403140927,275.43222469307597,-22.5369501444589,239.5852512314566,-45.74643478743707,234.48214116545842,-42.23145581086334,5.10311006599818,-3.5149789765737296,45.25890621536927,15.06832655866944,194.32634501608732,-60.81476134610652,239.5852512314566,-45.74643478743707,35.84697346161937,23.20948464297817,0.0,0.0,80.78821183262146,-45.03531595816362,63.610353409572966,-16.959408968121483,49.9277797738929,1.1799635801785868,45.25890621536927,15.06832655866944,10,9.162728612688819e-16,272.43453847477673,9.877426494358608e-16,272.43453847477673,1.1102230246251565e-13,0.0,0.0164521751775919,1.2010087879642182,0.0164521751775919
0.25177559028464386,266.778869593694,-27.380887612802724,248.11628143653013,-40.84260561456483,248.11628143653013,-40.84260561456483,0.0,0.0,54.04176056545133,19.977581125018837,194.07452087107885,-60.820186739583704,248.11628143653013,-40.84260561456483,18.6625881571639,13.46171800176211,0.0,0.0,80.80200935693858,-45.046135567110355,63.54449495030849,-16.94404786244211,49.72801656383176,1.1699966899687624,54.04176056545133,19.977581125018837,11,9.930509108776812e-16,414.6189797008226,1.1327203341465808e-15,414.6189797008226,9.71445146547012e-14,0.0,0.0,1.3161740142073626,0.0
0.2546366765378784,264.4476338251751,-28.083433554026733,244.54375790035346,-42.20183961779267,210.3431117549438,-20.304836001640155,34.20064614540965,-21.897003616152517,50.829624632934234,18.5077733950679,193.7141332674192,-60.70961301286057,244.54375790035346,-42.20183961779267,19.903875924821673,14.11840606376594,0.0,0.0,80.64407359897768,-44.9417870529161,63.49390002713401,-16.932438728695292,49.57615964130751,1.1646127687507999,50.829624632934234,18.5077733950679,10,1.0482030987918427e-15,389.9032846173079,1.1274205348960338e-15,389.9032846173079,1.1102230246251565e-13,0.0,0.1151652262431444,1.2997218390297707,0.1151652262431444
0.257497762791113,261.37603517372503,-29.296084468280377,240.2264302078803,-44.04377700026838,210.67008973176803,-24.88352452766574,29.55634047611227,-19.160252472602636,46.578805948306574,16.71161958736147,193.64762425957372,-60.75539658762982,240.2264302078803,-44.04377700026838,21.149604965844745,14.747692531988003,0.0,0.0,80.72688564371387,-44.99334404290427,63.45742220849055,-16.924466751932897,49.463316407369305,1.162414207207334,46.578805948306574,16.71161958736147,10,1.0657069321692469e-15,368.7787949775582,1.3520596744882442e-15,368.7787949775582,1.1102230246251565e-13,0.0,0.09871305106555206,1.2832696638521786,0.09871305106555206
0.26035884904434764,260.7804754275847,-29.535945289197812,238.38124827303676,-44.88485244879311,213.54326367677973,-28.583602460992907,24.83798459625703,-16.301249987800205,44.75504788633513,15.922229642035688,193.6262003867016,-60.80708209082877,238.38124827303676,-44.88485244879311,22.39922715454791,15.348907159595301,0.0,0.0,80.81731524351807,-45.04865949508971,63.43365492612018,-16.919948437238258,49.37523021706339,1.1615258414991771,44.75504788633513,15.922229642035688,10,1.5134211207374168e-15,350.55283080421634,9.770947769376502e-16,350.55283080421634,8.326672684688674e-14,0.0,0.08226087588795994,1.2668174886745864,0.08226087588795994
0.2632199352975822,259.543260092427,-30.173818430278764,235.89065170116407,-46.0954998949838,215.8489801961964,-32.780296438906134,20.041671504967667,-13.315203456077668,42.27576379543106,14.77371063447493,193.61488790573304,-60.86921052945877,235.89065170116407,-46.0954998949838,23.652608391262877,15.921681464705037,0.0,0.0,80.91470784562338,-45.10743629928651,63.42140904453811,-16.91874371305383,49.27877101557155,1.1569694828815713,42.27576379543106,14.77371063447493,10,1.2392659808629675e-15,334.32201521994716,1.4948221867695143e-15,334.32201521994716,8.326672684688674e-14,0.0,0.06580870071036804,1.2503653134969945,0.06580870071036804
0.2660810215508168,259.9888824291526,-30.19055140458391,235.0788727860243,-46.65646239902621,219.91540372767258,-36.45931894137421,15.163469058351723,-10.197143457652004,41.49339021939889,14.28857086292847,193.58548256662542,-60.94503326195468,235.0788727860243,-46.65646239902621,24.910009643128305,16.4659109944423,0.0,0.0,81.0182352121852,-45.16927009206296,63.42021444610038,-16.92085646147501,49.14703290833983,1.1450932915833079,41.49339021939889,14.28857086292847,10,8.146734823842682e-16,319.7000367867756,9.993415620004886e-16,319.7000367867756,1.1102230246251565e-13,0.0,0.04935652553277592,1.2339131383194024,0.04935652553277592
0.26894210780405137,260.4545180887737,-30.281048452530165,234.2824496590809,-47.26276754407297,224.0829275495038,-40.32077635023343,10.199522109577089,-6.9419911938395416,40.73014167519519,13.768429269168802,193.55230798388573,-61.03119681324176,234.2824496590809,-47.26276754407297,26.17206842969279,16.981719091542807,0.0,0.0,81.12700758858385,-45.233713847114444,63.43176603470592,-16.9266404168514,48.993534360595916,1.1291574507240938,40.73014167519519,13.768429269168802,10,1.2919991408178837e-15,306.41549290991696,1.955655084732882e-15,306.41549290991696,8.326672684688674e-14,0.0,0.03290435035518402,1.2174609631418105,0.03290435035518402
0.271803194057286,260.9292587045708,-30.433023748730857,233.48947786358715,-47.90244595171485,228.34331590421885,-44.357811037570656,5.1461619593683,-3.544634914144197,39.94903402931512,13.221252693262631,193.54044383427203,-61.12369864497748,233.48947786358715,-47.90244595171485,27.439780840983687,17.469422202983996,0.0,0.0,81.24163588025323,-45.30094411697459,63.45666258320758,-16.936016542177455,48.842145370811195,1.1132620141745875,39.94903402931512,13.221252693262631,10,9.210254713981833e-16,294.27250747872154,9.740375296832842e-16,294.27250747872154,1.1102230246251565e-13,0.0,0.0164521751775919,1.2010087879642184,0.0164521751775919
0.2746642803105206,255.25069216489743,-34.01930966703692,241.89474018731985,-43.50851445358386,241.8947401873199,-43.50851445358391,-5.684341886080802e-14,5.684341886080802e-14,48.32074288202898,17.711131314426176,193.57399730529087,-61.21964576801007,241.89474018731985,-43.50851445358386,13.355951977577561,9.489204786546937,0.0,0.0,81.36591564667657,-45.37252589930468,63.492416091379376,-16.947691103540567,48.71566556723494,1.1005712348351793,48.32074288202898,17.711131314426176,11,1.3196632467133235e-15,463.3098677926214,1.1445204067969625e-15,463.3098677926214,1.1102230246251565e-13,3.469446951953614e-18,-2.220446049250313e-16,1.3161740142073626,0.0
0.27752536656375515,255.56675952274995,-33.994520153702204,241.21872717490535,-44.01193996736177,206.68281140094965,-21.89965542454928,34.53591577395571,-22.11228454281249,47.737402351845795,17.180753668636115,193.4813248230595,-61.19269363599783,241.21872717490535,-44.01193996736177,14.348032347844601,10.017419813659567,0.0,0.0,81.30979369658564,-45.3234900923614,63.54061339959824,-16.962106395626257,48.63091772687565,1.0929028519897983,47.737402351845795,17.180753668636115,10,1.0964305421378393e-15,435.52851462142627,1.646466351734893e-15,435.52851462142627,9.71445146547012e-14,0.0,0.1151652262431444,1.2997218390297707,0.1151652262431444
0.28038645281698976,254.69351391186925,-34.683337294500284,239.33684220495803,-45.21541504485417,209.45247999628896,-25.842160688939558,29.884362208669074,-19.37325435591461,45.64031960196225,16.106557784479257,193.6965226029958,-61.32197282933342,239.33684220495803,-45.21541504485417,15.356671706911225,10.532077750353885,0.0,0.0,81.49782927729952,-45.432934153840115,63.60238907167276,-16.979706492338565,48.59630425402351,1.0906678168452686,45.64031960196225,16.106557784479257,10,8.661856094458664e-16,411.66280215242705,1.1553654717674885e-15,411.66280215242705,1.1102230246251565e-13,0.0,0.09871305106555206,1.2832696638521786,0.09871305106555206
0.2832475390702243,255.04055640924184,-34.99001505444822,238.658386701353,-46.0226842231057,213.51413901090262,-29.520246498121026,25.144247690450385,-16.502437724984674,44.67926513988369,15.429368332061173,193.97912156146933,-61.4520525551669,238.658386701353,-46.0226842231057,16.382169707888842,11.032669168657474,0.0,0.0,81.6901255140792,-45.54435485073461,63.67791595073125,-17.000747132713116,48.611080096658874,1.0930494282808212,44.67926513988369,15.429368332061173,10,9.702568384909066e-16,390.9694364834726,8.897408985544228e-16,390.9694364834726,1.1102230246251565e-13,0.0,0.08226087588796038,1.2668174886745867,0.08226087588796038
0.28610862532345893,253.39831088126056,-35.78893176371867,235.97316683545435,-47.30780774960503,215.6609739779091,-33.812791977851205,20.312192857545256,-13.495015771753827,41.64854907833838,14.275494442882987,194.32461775711596,-61.583302192488034,235.97316683545435,-47.30780774960503,17.425144045806206,11.51887598588636,0.0,0.0,81.88578420263383,-45.657323388648884,63.766543921960206,-17.025313239053332,48.67228963252194,1.0993344352141818,41.64854907833838,14.275494442882987,10,1.2582213968647553e-15,372.49443487211505,2.0463877311573786e-15,372.49443487211505,8.326672684688674e-14,0.0,0.06580870071036804,1.2503653134969945,0.06580870071036804
0.2889697115766935,251.83599097633177,-36.67361682909855,233.34947395042948,-48.664159718689646,217.96461990773062,-38.31810818343031,15.384854042698862,-10.346051535259335,38.676585791464305,13.06054160354904,194.67288815896518,-61.72470132223869,233.34947395042948,-48.664159718689646,18.486517025902298,11.990542889591097,0.0,0.0,82.08387301240839,-45.77136961866434,63.86726014438658,-17.05339470649462,48.72175500217021,1.1000630029202654,38.676585791464305,13.06054160354904,10,8.600567154437535e-16,355.8150372857996,1.2159308764432304e-15,355.8150372857996,1.1102230246251565e-13,0.0,0.04935652553277636,1.2339131383194029,0.04935652553277636
0.2918307978299281,251.98079544084518,-36.960820362898616,232.41329256856957,-49.40847050694504,222.05428770992935,-42.357924560217825,10.359004858640219,-7.050545946727212,37.41777267592025,12.470451997261698,194.99551989264933,-61.87892250420674,232.41329256856957,-49.40847050694504,19.56750287227561,12.447650144046422,0.0,0.0,82.28348432259513,-45.886022375837285,63.980574125900326,-17.08515014763066,48.73146144415385,1.0922500192612077,37.41777267592025,12.470451997261698,10,9.345462904934659e-16,340.63554295383494,1.3423084333260965e-15,340.63554295383494,1.1102230246251565e-13,0.0,0.03290435035518402,1.2174609631418105,0.03290435035518402
0.2946918840831627,251.35060430925716,-37.61536102522321,230.68100849177026,-50.50564877965587,225.44938018306092,-46.90214455006583,5.2316283087093325,-3.603504229590044,35.375050697553476,11.536360816636428,195.30595779421682,-62.04200959629233,230.68100849177026,-50.50564877965587,20.669595817486904,12.890287754432661,0.0,0.0,82.48537718864605,-46.00150511984109,64.10522596296194,-17.12011771673638,48.715354642608816,1.0796132402851413,35.375050697553476,11.536360816636428,10,1.0671838391560541e-15,326.7422785695597,1.6641656856551904e-15,326.7422785695597,1.6653345369377348e-13,0.0,0.0164521751775919,1.2010087879642184,0.0164521751775919
0.29755297033639727,247.4277159298694,-40.38817890667047,238.3172396441444,-46.74428875305745,238.3172396441444,-46.74428875305745,0.0,0.0,42.692612249371315,15.465583165778085,195.62462739477306,-62.20987191883552,238.3172396441444,-46.74428875305745,9.110476285725026,6.356109846386976,0.0,0.0,82.69386257219429,-46.11958559233852,64.2369068518767,-17.156502400662887,48.69385797070206,1.0662160741658795,42.692612249371315,15.465583165778085,11,1.08761047520034e-15,538.0464081841181,1.0105476416938085e-15,538.0464081841181,9.71445146547012e-14,3.469446951953614e-18,0.0,1.3161740142073626,0.0
0.3004140565896319,248.1864442181826,-40.32973243675812,238.2697546202109,-47.12368219232731,203.091122824071,-24.599427154382212,35.17863179613991,-22.524255037945096,42.47484139352761,15.139892937707753,195.79491322668326,-62.263575130035036,238.2697546202109,-47.12368219232731,9.916689597971683,6.79394975556919,0.0,0.0,82.73257078136467,-46.12426358443382,64.37650066140019,-17.194520466670124,48.68584178391842,1.0552089210688749,42.47484139352761,15.139892937707753,10,1.0514871650306334e-15,505.3605492515189,1.0865120339611171e-15,505.3605492515189,1.1102230246251565e-13,0.0,0.11516522624314418,1.2997218390297705,0.11516522624314418
0.30327514284286644,248.99189070050414,-40.55463138906022,238.24254785223422,-47.78365826942968,207.77676657611048,-28.03322539502389,30.46578127612375,-19.75043287440579,42.01638281727314,14.677510533381348,196.22616503496107,-62.46116880281103,238.24254785223422,-47.78365826942968,10.749342848269924,7.229026880369457,0.0,0.0,82.99600578641815,-46.27489661044916,64.5255144173289,-17.234647312410665,48.70464483121399,1.0483751200488172,42.01638281727314,14.677510533381348,10,9.231359762823632e-16,477.0020870063408,1.6201379095295576e-15,477.0020870063408,1.1102230246251565e-13,0.0,0.09871305106555228,1.2832696638521786,0.09871305106555228
0.30613622909610105,249.76559919984868,-40.81791648941838,238.15634019671853,-48.47873845845655,212.503595369258,-31.64243746391918,25.652744827460538,-16.836300994537368,41.451720436545216,14.178050124899407,196.7046197601733,-62.65678858335596,238.15634019671853,-48.47873845845655,11.60925900313015,7.660821969038167,0.0,0.0,83.26082178649642,-46.42580698542381,64.68540873432106,-17.277387756756887,48.75838923935581,1.046406158824766,41.451720436545216,14.178050124899407,10,1.051770039843944e-15,452.165774607564,1.335907791969107e-15,452.165774607564,6.938893903907228e-14,0.0,0.08226087588796016,1.2668174886745864,0.08226087588796016
0.3089973153493356,250.4555125442592,-41.1367881170554,237.95798861581295,-49.22572900959142,217.220924179595,-35.44838064124127,20.737064436217963,-13.777348368350147,40.69247104698539,13.619743682527435,197.26551756882756,-62.84547269211885,237.95798861581295,-49.22572900959142,12.497523928446242,8.088940892536012,0.0,0.0,83.52632406667735,-46.57672332101896,64.85729041624343,-17.32319658010171,48.88190308590677,1.0544472090018502,40.69247104698539,13.619743682527435,10,1.2413766197055234e-15,429.884581773987,9.909160156309511e-16,429.884581773987,8.326672684688674e-14,0.0,0.06580870071036826,1.2503653134969945,0.06580870071036826
0.3118584016025702,251.06145408820475,-41.50405981682813,237.6459754492398,-50.01715290150234,221.9297059297761,-39.448211259599844,15.716269519463708,-10.568941641902498,39.712783109853646,13.007314841919914,197.93319233938618,-63.024467743422264,237.6459754492398,-50.01715290150234,13.415478638964949,8.513093084674214,0.0,0.0,83.79173771935177,-46.72730144084733,65.04178629391171,-17.372429816957325,49.099668326122696,1.0752635143823852,39.712783109853646,13.007314841919914,10,9.287762969394772e-16,409.6894069175436,1.6713509873104013e-15,409.6894069175436,8.326672684688674e-14,0.0,0.04935652553277614,1.2339131383194024,0.04935652553277614
0.31471948785580484,250.86981191747148,-42.09620052128979,236.5050995699879,-51.02927155050038,225.91714667837496,-43.82289496569264,10.587952891612929,-7.206376584807742,37.86038635773713,12.175804691663028,198.64471321225076,-63.205076242163415,236.5050995699879,-51.02927155050038,14.364712347483588,8.933071029210597,0.0,0.0,84.05627025371393,-46.87716266086728,65.24026250846639,-17.425480236500782,49.34818045007045,1.0975666552046306,37.86038635773713,12.175804691663028,10,9.905344341718293e-16,391.2558447163467,8.508243936441372e-16,391.2558447163467,9.020562075079397e-14,0.0,0.03290435035518402,1.2174609631418103,0.03290435035518402
0.3175805741090394,251.33702775790584,-42.42544669183786,235.98997143319738,-51.77417743241294,230.64010766175463,-48.089233252515356,5.349863771442756,-3.6849441798975846,36.63329996590322,11.61977676154348,199.35667146729412,-63.393954193956375,235.98997143319738,-51.77417743241294,15.347056324708472,9.348730740575075,0.0,0.0,84.3207272012541,-47.02657634336283,65.45053753195016,-17.481831258595456,49.585406734089894,1.1144534080018786,36.63329996590322,11.61977676154348,10,9.728220776644417e-16,374.3495747054566,1.3575264880190985e-15,374.3495747054566,6.938893903907228e-14,0.0,0.01645217517759212,1.2010087879642184,0.01645217517759212
0.320441660362274,246.20077320555066,-45.35476918778781,240.35568648258985,-49.35004085192284,240.35568648258985,-49.35004085192284,0.0,0.0,40.53317152561918,14.276599566345237,199.82251495697065,-63.626640418268096,240.35568648258985,-49.35004085192284,5.845086722960803,3.9952716641350325,0.0,0.0,84.58944185311273,-47.17732796072258,65.66694037881845,-17.53947291891677,49.56613272503946,1.0901604613712763,40.53317152561918,14.276599566345237,11,1.241329348171289e-15,655.5885175095367,2.146987175149572e-15,655.5885175095367,9.71445146547012e-14,0.0,0.0,1.3161740142073626,0.0
0.32330274661550856,246.22969192485564,-45.526293673001376,239.7295495668286,-49.88648458847092,203.72247337022364,-26.83180850837455,36.00707619660497,-23.05467608009637,39.654736478252524,13.863988698888704,200.07481308857615,-63.75047328735968,239.7295495668286,-49.88648458847092,6.500142358027043,4.360190915469541,0.0,0.0,84.6836160476192,-47.21179410459559,65.88910848966623,-17.598321837245216,49.50208855129071,1.059642654481138,39.654736478252524,13.863988698888704,10,1.3459633167606404e-15,614.800622622357,1.6442395007902313e-15,614.800622622357,8.326672684688674e-14,0.0,0.1151652262431444,1.2997218390297707,0.1151652262431444
0.3261638328687432,246.7763306869339,-45.84738758146722,239.58703313769166,-50.5781145721142,208.38899302879275,-30.353014011245563,31.19804010889891,-20.22510056086864,39.01676780483864,13.442211631421046,200.570265332853,-64.02032620353522,239.58703313769166,-50.5781145721142,7.189297549242232,4.730726990646984,0.0,0.0,85.00434018652204,-47.393660779142444,66.11766697780993,-17.658599647307184,49.448258168521036,1.0319342229144013,39.01676780483864,13.442211631421046,10,1.4703170698375999e-15,578.8506470878544,1.1634645781387751e-15,578.8506470878544,9.71445146547012e-14,0.0,0.09871305106555206,1.2832696638521786,0.09871305106555206
0.32902491912197773,247.6482002868101,-46.113976130906046,239.73441360563245,-51.22031390740378,213.45455011877817,-33.97247052460203,26.279863486854282,-17.247843382801747,38.61324230057511,13.06145325254414,201.12117130505737,-64.28176715994798,239.73441360563245,-51.22031390740378,7.913786681177654,5.1063377764977345,0.0,0.0,85.32321164899592,-47.57394619706302,66.3535128527276,-17.72064390879985,49.444446803333825,1.012822945914941,38.61324230057511,13.06145325254414,10,9.30314771270256e-16,546.862408609865,1.2928627109784267e-15,546.862408609865,5.551115123125783e-14,0.0,0.08226087588796038,1.2668174886745867,0.08226087588796038
0.33188600537521235,248.6361815553705,-46.38720458769588,239.96109698680343,-51.87377267088216,218.71001918078474,-37.754957630743135,21.251077806018685,-14.118815040139026,38.1889768011077,12.654560677737788,201.77212018569574,-64.52833334861995,239.96109698680343,-51.87377267088216,8.675084568567078,5.486568083186284,0.0,0.0,85.63976898830113,-47.75254798951936,66.59753073412176,-17.784855647077844,49.53482046327285,1.0090702879772593,38.1889768011077,12.654560677737788,10,1.0219632013947715e-15,517.9632429997185,1.2648960795437812e-15,517.9632429997185,8.326672684688674e-14,0.0,0.06580870071036804,1.2503653134969945,0.06580870071036804
0.33474709162844696,249.64294712938005,-46.68620703380646,240.16804340179516,-52.55723973884463,224.05786440855775,-41.72342034130051,16.11017899323741,-10.833819397544119,37.606736406260985,12.198236342787006,202.56130699553415,-64.75547608163164,240.16804340179516,-52.55723973884463,9.474903727584891,5.871032705038167,0.0,0.0,85.95344134211115,-47.92927949228584,66.85051308272543,-17.85165950641152,49.75735257069758,1.025462917065738,37.606736406260985,12.198236342787006,10,1.346759122290338e-15,491.62237465973726,9.815345305651066e-16,491.62237465973726,5.551115123125783e-14,0.0,0.04935652553277592,1.2339131383194024,0.04935652553277592
0.3376081778816815,249.3512001708576,-47.3425856711379,239.03600777061155,-53.60198582110944,228.18035218599107,-46.213412984240094,10.855655584620479,-7.3885728368693435,35.64570150130592,11.379069747494441,203.39030626930563,-64.98105556860389,239.03600777061155,-53.60198582110944,10.315192400246053,6.259400149971543,0.0,0.0,86.26361645470885,-48.10390019649066,67.11389854346332,-17.92156487764848,50.012791271133466,1.0444095055352278,35.64570150130592,11.379069747494441,10,9.306672846622962e-16,467.4840876910023,1.2952461234577767e-15,467.4840876910023,1.6653345369377348e-13,0.0,0.03290435035518402,1.2174609631418105,0.03290435035518402
0.3404692641349161,250.52449455722814,-47.62252429003469,239.32636123002942,-54.273901266123474,233.84031747304834,-50.49515856079479,5.486043756981076,-3.778742705328682,34.94175612662923,10.912601190162206,204.3846051034002,-65.18650245628568,239.32636123002942,-54.273901266123474,11.198133327198722,6.651376976088786,0.0,0.0,86.57142758267699,-48.27686007143234,67.38674972863211,-17.994295487764347,50.42642779209111,1.0846531029109912,34.94175612662923,10.912601190162206,10,1.2245629756416727e-15,445.29573484296185,1.1542881550042545e-15,445.29573484296185,7.632783294297951e-14,0.0,0.0164521751775919,1.2010087879642184,0.0164521751775919
0.3433303503881507,248.47180031307104,-49.64486170675444,245.05096723731862,-51.932423972896984,245.05096723731862,-51.932423972896984,0.0,0.0,39.5838761584145,13.453572298530368,205.46709107890408,-65.38599627142733,245.05096723731862,-51.932423972896984,3.4208330757524363,2.2875622661425474,0.0,0.0,86.88191516175544,-48.45026378424024,67.66391668837767,-18.067881506638106,50.92125922877099,1.1321490194509778,39.5838761584145,13.453572298530368,11,1.3748536417774695e-15,852.3984804031953,1.8126470036694754e-15,852.3984804031953,5.551115123125783e-14,3.469446951953614e-18,0.0,1.3161740142073626,0.0
0.3461914366413853,248.7741576689721,-49.93951815335042,244.83342759398732,-52.52419633848004,207.84876910949887,-28.84382422925715,36.98465848448845,-23.680372109222887,38.51184364220242,12.970706234244862,206.32158395178487,-65.49490257272487,244.83342759398732,-52.52419633848004,3.9407300749847844,2.584678185129616,0.0,0.0,87.03139211677478,-48.51640373837609,67.94539401637064,-18.142356711123128,51.34479781863947,1.1638578767743297,38.51184364220242,12.970706234244862,10,1.5784687513790381e-15,797.1043548019096,1.1516653905285525e-15,797.1043548019096,1.1102230246251565e-13,0.0,0.1151652262431444,1.2997218390297705,0.1151652262431444
0.3490525228946199,249.25367321433953,-50.32586163712092,244.7529074287431,-53.220094171091745,212.70339508446781,-32.44317340089164,32.049512344275286,-20.776920770200107,37.595772085503796,12.556353405400554,207.1571353432393,-65.77644757649226,244.7529074287431,-53.220094171091745,4.5007657855964425,2.894232533970819,0.0,0.0,87.3885432128231,-48.7176642387477,68.23191547410835,-18.21799219655371,51.53667665630786,1.15920885880913,37.595772085503796,12.556353405400554,10,1.218084519245346e-15,747.3098291689618,1.8744179174663616e-15,747.3098291689618,6.245004513516506e-14,0.0,0.09871305106555206,1.2832696638521783,0.09871305106555206
0.35191360914785447,248.65763916832358,-50.97507700864398,243.5550359249895,-54.190794853385725,216.55571844521285,-36.4708815180431,26.999317479776664,-17.719913335342625,35.94958531105974,11.918846224535777,207.60545061392975,-66.10964107792151,243.5550359249895,-54.190794853385725,5.102603243334077,3.2157178447417487,0.0,0.0,87.74211771370013,-48.91624122387098,68.52447242212676,-18.295124917910677,51.338860478102866,1.1017250638601581,35.94958531105974,11.918846224535777,10,1.2657846791872281e-15,702.043219777758,9.78162328779028e-16,702.043219777758,1.6653345369377348e-13,0.0,0.08226087588796038,1.2668174886745864,0.08226087588796038
0.3547746954010891,249.196604511766,-51.33300064787529,243.4484562883791,-54.88169170042788,221.61493850102002,-40.37598493787958,21.833517787359085,-14.5057067625483,35.33612834513773,11.54982290888237,208.11232794324135,-66.43151460931026,243.4484562883791,-54.88169170042788,5.748148223386878,3.548691052552592,0.0,0.0,88.09210471128023,-49.11232645475906,68.82410944974379,-18.37412931791407,51.19611378221735,1.0549411633628694,35.33612834513773,11.54982290888237,10,1.385450688051146e-15,660.7904688181878,1.038224444665088e-15,660.7904688181878,6.938893903907228e-14,0.0,0.06580870071036804,1.2503653134969943,0.06580870071036804
0.35763578165432364,249.3235987780358,-51.851818066307395,242.88404795302492,-55.74457724384489,226.3325783306943,-44.61403188281956,16.551469622330615,-11.130545361025327,34.1273850097181,10.98762992115542,208.7566629433068,-66.73220716500029,242.88404795302492,-55.74457724384489,6.439550825010889,3.8927591775374943,0.0,0.0,88.43828401693519,-49.30598720527403,69.13173125629729,-18.45538483163775,51.18664767007432,1.0291648719114832,34.1273850097181,10.98762992115542,10,1.1232773063989958e-15,622.9236367177372,1.0236674156521819e-15,622.9236367177372,5.551115123125783e-14,0.0,0.04935652553277636,1.2339131383194024,0.04935652553277636
0.36049686790755825,250.5231461604115,-52.10770399016715,243.3439384273538,-56.35526931658481,232.19151253523475,-48.76472049557687,11.152425892119055,-7.590548821007943,33.74054143820652,10.649070820750428,209.60339698914729,-67.00434013733525,243.3439384273538,-56.35526931658481,7.179207733057699,4.24756532641766,0.0,0.0,88.78026321324006,-49.49717116665012,69.44903897992735,-18.539380255457274,51.37409479597986,1.032211284772174,33.74054143820652,10.649070820750428,10,1.3622600242043334e-15,588.076149792742,1.1932036930702505e-15,588.076149792742,5.551115123125783e-14,0.0,0.03290435035518402,1.2174609631418103,0.03290435035518402
0.3633579541607928,251.78110230980195,-52.38110263958883,243.81133716727672,-56.99387759319809,238.17578079176985,-53.11215347244577,5.635556375506866,-3.881724120752324,33.18461192814863,10.260433235194217,210.62672523912812,-67.2543108283923,243.81133716727672,-56.99387759319809,7.969765142525234,4.612774953609263,0.0,0.0,89.11933544141989,-49.68646831174953,69.77622167617432,-18.625935775215414,51.73116812153392,1.0580932585726188,33.18461192814863,10.260433235194217,10,9.620557699443227e-16,556.0095776410617,1.2576750323150258e-15,556.0095776410617,5.551115123125783e-14,0.0,0.016452175177592343,1.2010087879642184,0.016452175177592343
0.3662190404140274,253.1190601278799,-52.660554047514836,244.30493779786113,-57.64861636966867,244.30493779786113,-57.64861636966867,0.0,0.0,32.490299257319236,9.837359145453132,211.81463854054192,-67.48597551512184,244.30493779786113,-57.64861636966867,8.81412233001876,4.988062322153841,0.0,0.0,89.46085662024376,-49.876158740099676,70.10815000389448,-18.71301358834776,52.24563191640365,1.1031968133256314,32.490299257319236,9.837359145453132,10,1.4800692357802254e-15,526.5153077084697,2.318664871865425e-15,526.5153077084697,6.938893903907228e-14,0.0,0.0,1.1845566127866263,0.0
0.36908012666726203,254.3128916288472,-52.84553804794324,244.597455775081,-58.218635153295025,206.56993327447748,-33.87129518877484,38.02752250060351,-24.347339964520188,31.61455215325523,9.374510015410703,212.98290362182576,-67.59314516870575,244.597455775081,-58.218635153295025,9.71543585376621,5.373097105351781,0.0,0.0,89.63714245105282,-49.95590277460597,70.44430158956368,-18.800595240289052,52.90145958120925,1.1633528461892766,31.61455215325523,9.374510015410703,9,1.1147154229845518e-15,499.38644455801574,8.733533861228808e-16,499.38644455801574,1.1102230246251565e-13,0.0,0.11516522624314418,1.168104437609034,0.11516522624314418
0.3719412129204966,255.70663198280806,-53.19102892939995,245.0295076212479,-58.958560000270836,212.07476697801448,-37.59528908408366,32.95474064323341,-21.363270916187176,30.53329761232851,8.871421272554073,214.49621000891938,-67.82998127282494,245.0295076212479,-58.958560000270836,10.67712436156017,5.767531070870891,0.0,0.0,90.02827883221073,-50.175598780993276,70.78470025251858,-18.888935363970425,53.68323092419006,1.234552872138778,30.53329761232851,8.871421272554073,9,1.2391692697559216e-15,474.4190997188739,1.4344132351216425e-15,474.4190997188739,4.5102810375396984e-14,0.0,0.09871305106555228,1.1516522624314423,0.09871305106555228
0.3748022991737312,254.24146755502392,-54.962786870396535,251.22628850730004,-56.81830177118022,223.46417478349494,-38.59804847969572,27.7621137238051,-18.220253291484497,35.107365634128115,11.238594347626954,216.11892287317193,-68.05689611880715,251.22628850730004,-56.81830177118022,3.015179047723875,1.855514900783683,0.0,0.0,90.41378073450159,-50.3913881071181,71.12977641494028,-18.978415426127242,54.575365723730066,1.3129074144382002,35.107365634128115,11.238594347626954,10,1.1128569638310912e-15,906.5787635947372,1.1561897593985407e-15,906.5787635947372,1.1102230246251565e-13,0.0,0.08226087588796016,1.2668174886745864,0.08226087588796016
0.37766338542696576,254.80865165357037,-55.439157603446176,251.2613974607811,-57.57666103930205,228.81169360901384,-42.6617276825541,22.449703851767254,-14.914933356747952,33.905576358765174,10.764771519071008,217.3558211020159,-68.34143255837304,251.2613974607811,-57.57666103930205,3.5472541927892673,2.1375034358558795,0.0,0.0,90.79397424904585,-50.60366299124948,71.48051714391183,-19.06954724908367,55.081329709058245,1.331777681960098,33.905576358765174,10.764771519071008,10,1.4808832471306933e-15,849.4544625244288,1.4963109738714308e-15,849.4544625244288,1.6653345369377348e-13,0.0,0.06580870071036826,1.2503653134969945,0.06580870071036826
0.38052447168020037,256.07240613232796,-55.80045256847502,251.9404470537986,-58.23736941070716,234.92293389726206,-46.79348609600969,17.017513156536552,-11.443883314697473,33.01355317770494,10.357160249193797,218.9268938760937,-68.59452965990097,251.9404470537986,-58.23736941070716,4.131959078529357,2.436916842232134,0.0,0.0,91.16904446948757,-50.81274468003497,71.83818346747047,-19.162924164160096,55.91966593913563,1.381139184294092,33.01355317770494,10.357160249193797,10,1.3836857251867545e-15,797.4011568581464,1.119013241174168e-15,797.4011568581464,5.551115123125783e-14,0.0,0.04935652553277614,1.2339131383194024,0.04935652553277614
0.38338555793343493,255.87244341039369,-56.292451151258085,251.10014753940888,-59.04592857370794,239.63474340198587,-51.24238174864816,11.465404137423008,-7.803546825059783,32.196922296899686,9.984374732768163,218.90322524250917,-69.0303033064761,251.10014753940888,-59.04592857370794,4.772295870984818,2.753477422449855,0.0,0.0,91.53898814761428,-51.018839524606584,72.20305379387297,-19.25904108144877,55.16118330102192,1.2475772995792624,32.196922296899686,9.984374732768163,10,9.255514565990216e-16,749.6977379313305,1.7883267659557856e-15,749.6977379313305,1.1102230246251565e-13,0.0,0.03290435035518424,1.2174609631418105,0.03290435035518424
0.38624664418666954,255.72578372834704,-56.82147973046282,250.25423359936312,-59.9083975029304,244.46117185857986,-55.918187729095976,5.7930617407832585,-3.9902097738344224,31.118118100679816,9.515494002243102,219.1361154986833,-69.42389150517349,250.25423359936312,-59.9083975029304,5.471550128983923,3.086917772467582,0.0,0.0,91.90534935150541,-51.22273396086532,72.57939767195546,-19.35838327512617,54.651368475222434,1.1572257308179914,31.118118100679816,9.515494002243102,10,1.2540709127328687e-15,705.248921057659,1.4232628981029335e-15,705.248921057659,1.1102230246251565e-13,0.0,0.01645217517759212,1.2010087879642184,0.01645217517759212
0.38910773043990415,256.66358420503747,-57.13933996117206,250.43028628577304,-60.576307358289355,250.43028628577304,-60.576307358289355,0.0,0.0,30.596768936619384,9.178652455305354,219.83351734915362,-69.7549598135947,250.43028628577304,-60.576307358289355,6.2332979192644355,3.436967397117296,0.0,0.0,92.27387405521142,-51.4269393356185,72.96588798753338,-19.45949125106314,54.59375530640885,1.1314707730869387,30.596768936619384,9.178652455305354,10,1.1919483172050243e-15,663.7823697510825,1.2643035152976502e-15,663.7823697510825,1.1102230246251565e-13,0.0,0.0,1.1845566127866263,0.0
0.3919688166931387,257.0304446765749,-57.47240486852947,249.96903123842046,-61.27574403843592,210.82320897076244,-36.21341910465516,39.14582226765802,-25.062324933780758,29.43157199143378,8.685314285359894,220.53745924698669,-69.9610583237958,249.96903123842046,-61.27574403843592,7.061413438154444,3.803339169906442,0.0,0.0,92.47688961287277,-51.52099266655081,73.36319789390798,-19.562434358675965,54.697371740205924,1.1223687014309789,29.43157199143378,8.685314285359894,9,1.1745589308229518e-15,625.2759733414808,1.2743504976563096e-15,625.2759733414808,1.1102230246251565e-13,0.0,0.1151652262431444,1.1681044376090344,0.1151652262431444
0.3948299029463733,258.63686594957926,-57.76053768145624,250.67678884264188,-61.94625326777759,216.7532130204699,-39.95555884921872,33.92357582217198,-21.990694418558874,28.739479085497607,8.307023113909821,221.9373097571443,-70.25327638168741,250.67678884264188,-61.94625326777759,7.960077106937401,4.185715586321348,0.0,0.0,92.89899877953383,-51.757675427820914,73.77058982136609,-19.667252413273154,55.26772115624437,1.171651459406661,28.739479085497607,8.307023113909821,9,1.3021160123810718e-15,589.6693458854035,8.914468352873709e-16,589.6693458854035,5.551115123125783e-14,0.0,0.09871305106555206,1.1516522624314423,0.09871305106555206
0.3976909891996079,260.30481753305185,-58.06155164994378,251.37103342816727,-62.645286411927955,222.79344564403883,-43.890202233784436,28.57758778412844,-18.75508417814352,27.794655881160953,7.875257673893721,223.5763775470063,-70.52054408582165,251.37103342816727,-62.645286411927955,8.9337841048846,4.583734761984179,0.0,0.0,93.31509261031226,-51.99001709490541,74.18632248336638,-19.773885935256956,56.07496245332768,1.2433589443406845,27.794655881160953,7.875257673893721,9,1.1033261159786753e-15,556.8274354163892,1.0221422590393882e-15,556.8274354163892,1.1102230246251565e-13,0.0,0.08226087588796038,1.1352000872538504,0.08226087588796038
0.4005520754528425,262.06229507283393,-58.367047172686384,252.07494177216066,-63.364023302201005,228.96683682303063,-48.0118518620455,23.108104949130023,-15.352171440155502,26.679362618666662,7.411601058726397,225.395579153494,-70.7756243609274,252.07494177216066,-63.364023302201005,9.987353300673282,4.996976129514618,0.0,0.0,93.72578794849068,-52.218538502922996,74.60843138733624,-19.882280343784643,57.061359817667075,1.3251944857802442,26.679362618666662,7.411601058726397,9,1.015789644413944e-15,526.5695126901805,1.8205179444726254e-15,526.5695126901805,5.551115123125783e-14,0.0,0.06580870071036804,1.1187479120762582,0.06580870071036804
0.4034131617060771,263.853496499526,-58.68538516638211,252.72755996000618,-64.1103309571341,235.21213137563007,-52.331688154315685,17.51542858437611,-11.77864280281841,25.44565705688268,6.927951713405349,227.2819029031235,-71.03828267053947,252.72755996000618,-64.1103309571341,11.12593653951983,5.424945790751981,0.0,0.0,94.13163179801927,-52.44376073654353,75.03464977472066,-19.992399339941784,58.11562133038355,1.3978774059458559,25.44565705688268,6.927951713405349,9,9.384568874641303e-16,498.7009101761196,1.0387059397858128e-15,498.7009101761196,1.1102230246251565e-13,0.0,0.04935652553277592,1.102295736898666,0.04935652553277592
0.40627424795931166,265.6419622965858,-59.02072476570556,253.2869340567403,-64.88778624981498,241.48712141327164,-56.85665805380221,11.79981264346867,-8.031128196012773,24.1148056411923,6.430701734205144,229.172128415548,-71.31848798402012,253.2869340567403,-64.88778624981498,12.355028239845506,5.8670614841094215,0.0,0.0,94.53308443732382,-52.66617657299128,75.45816550480419,-20.10370648967765,59.18087847342002,1.4513950786488081,24.1148056411923,6.430701734205144,9,8.778585311002879e-16,473.0306061884604,1.3927510290167064e-15,473.0306061884604,4.163336342344337e-14,0.0,0.03290435035518402,1.0858435617210742,0.03290435035518402
0.4091353342125463,263.6327993510776,-60.83028101609162,260.0584525683753,-62.79847523480218,254.09708327222128,-58.69233953084682,5.961369296154004,-4.10613570395536,29.530994413788033,8.871935314468395,230.52745815458726,-71.67041054927057,260.0584525683753,-62.79847523480218,3.5743467827022997,1.9681942187105634,0.0,0.0,94.93205941902622,-52.8868583814957,75.88471138658119,-20.216781818836125,59.71068734897986,1.4332296510612323,29.530994413788033,8.871935314468395,10,1.284725706876337e-15,901.7412639136121,1.5546908526967988e-15,901.7412639136121,1.1102230246251565e-13,0.0,0.0164521751775919,1.2010087879642184,0.0164521751775919
0.41199642046578083,265.1842101291979,-61.20162059872303,260.9309797754976,-63.48992757493248,260.9309797754976,-63.48992757493248,0.0,0.0,28.71227242851115,8.513697695962364,232.21870734698646,-72.00362527089487,260.9309797754976,-63.48992757493248,4.253230353700294,2.28830697620945,0.0,0.0,95.33439859600686,-53.10850814752886,76.31903530682683,-20.33111239634861,60.565273444152744,1.4359952729825878,28.71227242851115,8.513697695962364,10,1.2123253301037013e-15,843.1382000647196,1.1233444057080354e-15,843.1382000647196,1.1102230246251565e-13,0.0,0.0,1.1845566127866265,0.0
0.41485750671901545,264.457270936606,-61.59918817959822,259.44807330829514,-64.23104963869557,219.15426480581957,-38.43546986456985,40.29380850247557,-25.795579774125713,27.814227609988286,8.135696781424873,231.63384569830683,-72.36674642012044,259.44807330829514,-64.23104963869557,5.009197628310841,2.6318614590973435,0.0,0.0,95.5308599201465,-53.19325667497786,76.76789065305253,-20.44772353817875,59.335095125107784,1.2742337930361742,27.814227609988286,8.135696781424873,9,1.3862344930225145e-15,789.2654027368085,2.3318023913283452e-15,789.2654027368085,1.1102230246251565e-13,0.0,0.11516522624314418,1.1681044376090344,0.11516522624314418
0.41771859297225,264.6389767247605,-62.08257452081552,258.791492378568,-65.08124683826931,223.87245201618762,-42.44634794562508,34.9190403623804,-22.63489889264423,26.97262962218772,7.757444317190696,231.81886275638027,-72.83869115546,258.791492378568,-65.08124683826931,5.847484346192476,2.9986723174537864,0.0,0.0,96.00266946367509,-53.45730959033985,77.23547774441393,-20.567529157565616,58.58071554829128,1.186147592445458,26.97262962218772,7.757444317190696,9,1.2469717277914962e-15,739.7783039966785,1.5592847624087981e-15,739.7783039966785,1.1102230246251565e-13,0.0,0.09871305106555228,1.1516522624314425,0.09871305106555228
0.4205796792254846,266.0828894665549,-62.37623128739988,259.3091852679771,-65.76472307201541,229.89157069463158,-46.458980485201764,29.41761457334553,-19.30574258681365,26.411143156755543,7.438343217000192,232.89804211122157,-73.20306628901561,259.3091852679771,-65.76472307201541,6.773704198577793,3.3884917846155322,0.0,0.0,96.47025278509837,-53.71807334540299,77.72281759671553,-20.691041456262056,58.7049717294077,1.20604851264941,26.411143156755543,7.438343217000192,9,1.4603965945117241e-15,693.8372075372346,1.6340168788264785e-15,693.8372075372346,1.1102230246251565e-13,0.0,0.08226087588796016,1.1352000872538504,0.08226087588796016
0.4234407654787192,267.26405962444977,-62.75731162077871,259.47019970026776,-66.55830488143812,235.68109306748124,-50.754029155198836,23.789106632786513,-15.804275726239283,25.348342138814175,7.011016092214685,234.12185756145357,-73.56932097365284,259.47019970026776,-66.55830488143812,7.793859924182015,3.800993260659408,0.0,0.0,96.93385955245863,-53.97579596092862,78.22821279711421,-20.818359597482498,58.95978521188072,1.2248345847582982,25.348342138814175,7.011016092214685,9,1.0379268921580458e-15,651.2057427905754,1.1985850352967552e-15,651.2057427905754,1.1102230246251565e-13,0.0,0.06580870071036804,1.1187479120762582,0.06580870071036804
0.4263018517319538,269.36592087531386,-63.022699526363496,260.45156639721034,-67.2584538553384,242.41832470721891,-55.13173392031459,18.033241689991428,-12.126719935023814,24.416758450721964,6.614725675148584,236.0348079464884,-73.873179530487,260.45156639721034,-67.2584538553384,8.914354478103526,4.235754328974905,0.0,0.0,97.39353703944971,-54.23067310572681,78.74676150478149,-20.949107740402567,59.894509402257185,1.306601315642375,24.416758450721964,6.614725675148584,9,1.0584795603880151e-15,611.8074781107246,1.3088783307785698e-15,611.8074781107246,5.551115123125783e-14,0.0,0.04935652553277614,1.1022957368986663,0.04935652553277614
0.4291629379851884,271.60967450256015,-63.301460059441226,261.46767230066393,-67.99369924166504,249.3178228711097,-59.72437132782227,12.149849429554223,-8.269327913842773,23.320147538996295,6.186963217631568,238.14752476166763,-74.1806624592966,261.46767230066393,-67.99369924166504,10.142002201896242,4.692239182223818,0.0,0.0,97.84913582777912,-54.48283776172334,79.25875454406676,-21.081002851681397,61.039634389821735,1.383178154108137,23.320147538996295,6.186963217631568,9,1.2976882968280452e-15,575.5172141106899,1.2352049697471838e-15,575.5172141106899,5.551115123125783e-14,0.0,0.03290435035518402,1.0858435617210742,0.03290435035518402
0.43202402423842295,272.956326491962,-63.704407193632896,261.4722865736053,-68.87418763286456,255.33347480454768,-64.64583621286381,6.138811769057611,-4.228351420000749,21.974705393637308,5.713830489942785,239.497581179968,-74.58801812280737,261.4722865736053,-68.87418763286456,11.484039918356725,5.169780439231663,0.0,0.0,98.30168092339937,-54.73291164306859,79.76272512384972,-21.21338718949889,61.43317513271893,1.358280709760102,21.974705393637308,5.713830489942785,9,1.1794779655758956e-15,542.1481466877129,9.946327135975764e-16,542.1481466877129,1.1102230246251565e-13,0.0,0.01645217517759212,1.0693913865434823,0.01645217517759212
0.43488511049165757,275.4846860855256,-63.9882062209005,262.5365482156144,-69.65576656090322,262.5365482156144,-69.65576656090322,0.0,0.0,20.718516274670336,5.264326240040765,241.81803194094414,-74.92009280094402,262.5365482156144,-69.65576656090322,12.948137869911184,5.667560340002718,0.0,0.0,98.75571987901412,-54.98300628496471,80.26385669272815,-21.345574454249622,62.79845536920183,1.4084879382703335,20.718516274670336,5.264326240040765,9,1.071666261240218e-15,511.48465556823743,1.1525941701294106e-15,511.48465556823743,1.1102230246251565e-13,0.0,0.0,1.0529392113658902,0.0
0.4377461967448921,277.7522063810118,-64.15005161066186,263.2097959661762,-70.33464292275781,221.62028405519447,-43.711501658432226,41.58951191098174,-26.623141264325582,19.360206416689323,4.801698234023373,243.8495895494869,-75.13634115678119,263.2097959661762,-70.33464292275781,14.542410414835564,6.184591312095945,0.0,0.0,98.98551347355307,-55.08440094255143,80.7715687613184,-21.478593918514086,64.0925073146154,1.4266537042843552,19.360206416689323,4.801698234023373,8,9.308619270050734e-16,483.309318278492,9.3539139053716e-16,483.309318278492,1.1102230246251565e-13,0.0,0.1151652262431444,1.0364870361882983,0.1151652262431444
0.44060728299812674,276.3863418069429,-66.04396859161888,272.12888916428375,-68.17919327157134,236.08692908133298,-44.81762941667121,36.041960082950766,-23.361563854900126,25.97410165652285,7.392979039785914,246.15478750776091,-75.57217231135728,272.12888916428375,-68.17919327157134,4.257452642659129,2.135224679952464,0.0,0.0,99.50826490783447,-55.37687096782739,81.29491523174738,-21.61384653573424,65.35160736817909,1.4185451922043342,25.97410165652285,7.392979039785914,9,1.4005041595210421e-15,900.5218528167355,1.402227660160624e-15,900.5218528167355,5.551115123125783e-14,0.0,0.09871305106555206,1.1516522624314423,0.09871305106555206
0.44346836925136135,278.7811719232637,-66.44502132826315,273.6355629975021,-68.9622912171426,243.27135984669692,-49.036044328602756,30.364203150805196,-19.92624688853985,25.243905437092337,7.073038419114088,248.39165756040973,-76.03532963625665,273.6355629975021,-68.9622912171426,5.1456089257615645,2.5172698888794507,0.0,0.0,100.02617168639159,-55.66583571096289,81.84128844230895,-21.752807326333013,66.5241974317092,1.3833134010392314,25.243905437092337,7.073038419114088,9,9.909764443756628e-16,840.6436513329676,1.331574755954235e-15,840.6436513329676,5.551115123125783e-14,0.0,0.08226087588795994,1.1352000872538501,0.08226087588795994
0.4463294555045959,280.7369057685908,-66.86731549832528,274.5913263616594,-69.79824485384555,250.0359392336851,-53.48525211320408,24.555387127974313,-16.312992740641462,24.451237545377186,6.733055775079933,250.14008881628223,-76.5313006289255,274.5913263616594,-69.79824485384555,6.145579406931397,2.930929355520261,0.0,0.0,100.53954920806537,-55.95146950241749,82.41541899228068,-21.896793133482035,67.18512061593621,1.3169620069740304,24.451237545377186,6.733055775079933,9,1.4798093103877354e-15,785.334841900642,9.991932967344529e-16,785.334841900642,1.1102230246251565e-13,0.0,0.06580870071036804,1.1187479120762582,0.06580870071036804
0.4491905417578305,279.88692517434504,-67.32010169563817,272.6214921782726,-70.69602226120539,254.0065820432962,-58.17830151440414,18.614910134976412,-12.517720746801245,23.5417161382627,6.360262395685766,249.07977604000993,-77.0562846568912,272.6214921782726,-70.69602226120539,7.265432996072427,3.3759205655672178,0.0,0.0,101.04864874835971,-56.23398564266645,83.01937914988179,-22.04680261701914,65.01174814176842,1.2245036027943854,23.5417161382627,6.360262395685766,9,1.374820961006837e-15,734.3922671120532,1.101064724930407e-15,734.3922671120532,1.1102230246251565e-13,0.0,0.04935652553277592,1.102295736898666,0.04935652553277592
0.4520516280110651,280.9858540896196,-67.57261741723173,272.4721268206958,-71.42442793178436,259.92976963913196,-62.88799871268067,12.54235718156383,-8.536429219103695,22.703881668863815,6.0017091938109335,249.76824515183196,-77.42613712559528,272.4721268206958,-71.42442793178436,8.513727268923777,3.8518105145526347,0.0,0.0,101.55346248123084,-56.51352932627146,83.63793544223678,-22.201579687952858,64.57684722836431,1.2889718886290495,22.703881668863815,6.0017091938109335,9,1.1703621687996096e-15,686.9822539138192,9.397017126214309e-16,686.9822539138192,1.1102230246251565e-13,0.0,0.03290435035518402,1.0858435617210742,0.03290435035518402
0.4549127142642997,282.0892135582411,-67.90324002164951,272.1896949216852,-72.26123384276701,265.85224595285854,-67.89606852437433,6.3374489688266635,-4.365165318392684,21.56074107892907,5.583896050245217,250.62895384275612,-77.84512989301221,272.1896949216852,-72.26123384276701,9.899518636555896,4.3579938211175,0.0,0.0,102.05511401107616,-56.79072439135814,84.23146893761344,-22.35581250936604,64.3423708940665,1.3014070077119655,21.56074107892907,5.583896050245217,9,1.819255331431761e-15,642.9597628114809,1.1464887071790502e-15,642.9597628114809,1.1102230246251565e-13,0.0,0.0164521751775919,1.069391386543482,0.0164521751775919
0.45777380051753425,284.6958626020274,-68.12827869853575,273.26349081458,-73.02194883902092,273.26349081458,-73.02194883902092,0.0,0.0,20.432753059419266,5.172973408094572,252.83073775516075,-78.1949222471155,273.26349081458,-73.02194883902092,11.432371787447401,4.893670140485176,0.0,0.0,102.55808667148115,-57.067624423226135,84.79878525645823,-22.507317801337116,65.47386582722135,1.380019977447759,20.432753059419266,5.172973408094572,9,1.224915216871564e-15,602.3072678214866,1.349501185558821e-15,602.3072678214866,2.220446049250313e-13,0.0,0.0,1.0529392113658902,0.0
0.46063488677076886,286.3039274908293,-68.30115447957131,273.18155920756294,-73.75897538503142,230.14464645072889,-46.211245373207944,43.036912756834056,-27.547730011823475,19.146030871711957,4.736074214033549,254.03552833585098,-78.49504959906496,273.18155920756294,-73.75897538503142,13.122368283266361,5.457820905460116,0.0,0.0,102.82200583972956,-57.18603020702124,85.35978107679703,-22.65782858649203,65.8537414193244,1.3488091944483074,19.146030871711957,4.736074214033549,8,1.0224072512208866e-15,564.915851995009,1.1149005128203031e-15,564.915851995009,1.1102230246251565e-13,0.0,0.1151652262431444,1.0364870361882979,0.1151652262431444
0.46349597302400347,289.70548942586845,-68.58529439534358,274.72537524029747,-74.6344798264329,237.43497617808993,-50.46496007361465,37.29039906220754,-24.169519752818246,17.825472185595373,4.298496014055999,256.89990305470207,-78.93297584048888,274.72537524029747,-74.6344798264329,14.980114185570967,6.049185431089316,0.0,0.0,103.39121884358308,-57.503649007286484,85.93593554535025,-22.809863233298486,67.57274866576877,1.3805364000960623,17.825472185595373,4.298496014055999,8,1.0216470873553727e-15,530.5952406621651,1.2573462854626571e-15,530.5952406621651,1.1102230246251565e-13,0.0,0.09871305106555206,1.0200348610107057,0.09871305106555206
0.46635705927723803,293.1789961296844,-68.89813723637586,276.16224954258803,-75.56437366463653,244.75057345072554,-54.95146738586595,31.41167609186249,-20.61290627877058,16.410152669852458,3.850574357793908,259.7520968727356,-79.41494802243044,276.16224954258803,-75.56437366463653,17.016746587096335,6.666236428260678,0.0,0.0,103.95571979843137,-57.81806499975524,86.54440816394774,-22.96594599793641,69.25196891035645,1.3690629752612224,16.410152669852458,3.850574357793908,8,1.1629055742908553e-15,499.12168741820375,1.2057638450285654e-15,499.12168741820375,1.1102230246251565e-13,0.0,0.08226087588796038,1.003582685833114,0.08226087588796038
0.46921814553047264,291.7437505907082,-70.983390183511,286.7370944753572,-73.32842546815365,261.33765580951825,-56.45508028947515,25.399438665838943,-16.873345178678505,24.127005745619716,6.603770254239432,262.61008872973747,-79.93219572239309,286.7370944753572,-73.32842546815365,5.006656115351021,2.345035284642653,0.0,0.0,104.51490342783063,-58.128933883069976,87.19733140580988,-23.12849177747688,70.89785389609699,1.325229938153754,24.127005745619716,6.603770254239432,9,1.30287727050474e-15,901.3331430918084,1.0855968322075065e-15,901.3331430918084,1.1102230246251565e-13,0.0,0.06580870071036804,1.1187479120762582,0.06580870071036804
0.4720792317837072,293.8603040923262,-71.3776823052022,287.70398153908695,-74.18767399899058,268.4512411697584,-61.24120118808435,19.252740369328535,-12.94647281090623,23.42191689754486,6.303020914807391,264.2820646415421,-80.49069491379797,287.70398153908695,-74.18767399899058,6.156322553239253,2.809991693788379,0.0,0.0,105.06848253157158,-58.43613408882911,87.90537603384077,-23.300143648004216,71.30820607612976,1.2455828230353276,23.42191689754486,6.303020914807391,9,1.508408589173642e-15,840.2765718078354,1.370408997831935e-15,840.2765718078354,2.220446049250313e-13,0.0,0.04935652553277636,1.1022957368986663,0.04935652553277636
0.4749403180369418,297.1800820298127,-71.76007313857419,289.71753990698176,-75.07741119494412,276.74663857119276,-66.24935913484978,12.970901335788994,-8.828052060094336,22.593476628404265,5.96674840475816,267.12406327857747,-81.04415959970225,289.71753990698176,-75.07741119494412,7.4625421228309365,3.31733805636993,0.0,0.0,105.6162483686708,-58.73963944785828,88.7193751252415,-23.488768173339523,72.78843978466514,1.1842480214955629,22.593476628404265,5.96674840475816,9,1.7540329754266257e-15,783.8377530276201,1.4368714693561985e-15,783.8377530276201,1.1102230246251565e-13,0.0,0.03290435035518402,1.0858435617210742,0.03290435035518402
0.4778014042901764,296.2891671655777,-72.07406387253926,287.3525054874041,-75.94060017493287,280.79907198535034,-71.42667302482815,6.5534335020537355,-4.5139271501047205,21.60660364479136,5.5872124936057865,265.74590184261274,-81.52781266853867,287.3525054874041,-75.94060017493287,8.936661678173628,3.8665363023936075,0.0,0.0,106.15975036329532,-59.040172577776325,89.49185585652481,-23.67716942946784,70.09429562279257,1.1895293387055261,21.60660364479136,5.5872124936057865,9,1.123123705370446e-15,731.7650378611186,1.6067361468828572e-15,731.7650378611186,2.220446049250313e-13,0.0,0.0164521751775919,1.069391386543482,0.0164521751775919
0.480662490543411,297.0075715943267,-72.30767295700608,286.4169717065121,-76.76446257080987,286.4169717065121,-76.76446257080987,0.0,0.0,20.52690985282935,5.1904430504995815,265.89006185368277,-81.95490562130948,286.4169717065121,-76.76446257080987,10.590599887814639,4.456789613803795,0.0,0.0,106.70437518661063,-59.34009325913263,90.17542956170682,-23.856724254678305,69.01025710536526,1.2419118925015056,20.52690985282935,5.1904430504995815,9,1.2923399231773454e-15,682.9839132124545,9.21671366565415e-16,682.9839132124545,2.220446049250313e-13,0.0,0.0,1.0529392113658902,0.0
0.4835235767966456,299.74714656502005,-72.26739412804072,287.3102970127307,-77.35440902127502,242.68884741493622,-48.79438849891331,44.62144959779448,-28.56002052236171,19.39812389517845,4.788217691616818,267.91217311755224,-82.14262671289184,287.3102970127307,-77.35440902127502,12.436849552289365,5.087014893234295,0.0,0.0,107.0063820826612,-59.47919542321962,90.79920578272011,-24.029491271048464,70.10658525217096,1.3660599813762389,19.39812389517845,4.788217691616818,8,1.179946964424336e-15,637.5196978560474,1.4051371818779515e-15,637.5196978560474,2.220446049250313e-13,0.0,0.1151652262431444,1.0364870361882979,0.1151652262431444
0.48638466304988015,302.25082824217407,-72.54080343663375,287.7623501476436,-78.29661821474612,249.10713881755805,-53.243738140052244,38.655211330085535,-25.052880074693874,18.118426979250263,4.362240580200945,269.6439231683933,-82.65885879494704,287.7623501476436,-78.29661821474612,14.488478094530466,5.755814778112372,0.0,0.0,107.61266077306335,-59.81703094603006,91.41715096017845,-24.201399752580983,70.6141114351515,1.3595719036639906,18.118426979250263,4.362240580200945,8,9.260233391083341e-16,595.4985292576298,8.860237885241058e-16,595.4985292576298,1.1102230246251565e-13,0.0,0.0987130510655525,1.0200348610107062,0.0987130510655525
0.48924574930311476,306.4646508350078,-72.75291195268397,289.7055247573466,-79.21436125048938,257.1513158293961,-57.852413610032286,32.554208927950526,-21.36194764045709,16.756799606045796,3.926751500978936,272.94872515130083,-83.14111275146833,289.7055247573466,-79.21436125048938,16.75912607766118,6.461449297805395,0.0,0.0,108.21148892618989,-60.15022016914713,92.06289085179006,-24.3763469678064,72.67434537332088,1.3854543854852182,16.756799606045796,3.926751500978936,8,1.1632952422130322e-15,556.8696435348717,1.0185604626386844e-15,556.8696435348717,1.1102230246251565e-13,0.0,0.08226087588796038,1.003582685833114,0.08226087588796038
0.4921068355563493,309.4444932525686,-73.0383430447576,290.1814896472021,-80.24015032704065,263.8641786419859,-62.75740352132533,26.317311005216197,-17.482746805715323,15.267951163902817,3.4757504259958587,274.9135384832993,-83.71590075303654,290.1814896472021,-80.24015032704065,19.263003605366446,7.201807282283058,0.0,0.0,108.8013036561813,-60.477919779020034,92.75935201175375,-24.557470707779103,73.35288281536428,1.3194897337625804,15.267951163902817,3.4757504259958587,8,1.1303413496136419e-15,521.4585661700881,9.372669315984244e-16,521.4585661700881,8.326672684688674e-14,0.0,0.06580870071036848,0.9871305106555222,0.06580870071036848
0.49496792180958393,308.13961874217307,-75.33258960822465,302.537767716012,-77.85807871454199,282.5940216466267,-64.44708916851957,19.943746069385327,-13.41098954602242,23.88931897043984,6.408338403178792,278.6484487455722,-84.2664171177208,302.537767716012,-77.85807871454199,5.601851026161078,2.525489106317332,0.0,0.0,109.38110694621211,-60.79960884174582,93.5212394179618,-24.747340871628325,75.74610238139829,1.2805325956533409,23.88931897043984,6.408338403178792,9,1.3854254611593e-15,905.6380906844093,1.1431060617852065e-15,905.6380906844093,1.1102230246251565e-13,0.0,0.04935652553277636,1.102295736898666,0.04935652553277636
0.49782900806281855,311.3823197043323,-75.63013007609882,304.3551678956755,-78.71702499347671,290.9220901724468,-69.574456797349,13.433077723228678,-9.142568196127712,23.26527892529004,6.137008115982184,281.08988897038546,-84.85403310945892,304.3551678956755,-78.71702499347671,7.027151808656802,3.086894917377891,0.0,0.0,109.95052696519521,-61.115123877215375,94.39791494737426,-24.95346295877129,76.74144705781598,1.2145537265277895,23.26527892529004,6.137008115982184,9,1.062941382577141e-15,843.4460602101193,1.022882482197611e-15,843.4460602101193,3.3306690738754696e-13,0.0,0.03290435035518402,1.0858435617210738,0.03290435035518402
0.5006900943160532,313.15367044837257,-75.88952305865791,304.4930554438968,-79.59428050190039,297.70791250438964,-74.92075988687523,6.785142939507182,-4.673520615025154,22.4691267594798,5.8132194064794245,282.023928684417,-85.40749990837978,304.4930554438968,-79.59428050190039,8.660615004475735,3.704757443242469,0.0,0.0,110.51323476189046,-61.42603997786564,95.32640499837372,-25.16957985234845,76.18428892415288,1.1881199218342715,22.4691267594798,5.8132194064794245,9,1.6199511349456487e-15,786.3446136071012,1.0703004040862553e-15,786.3446136071012,1.1102230246251565e-13,0.0,0.0164521751775919,1.0693913865434816,0.0164521751775919
0.5035511805692877,313.3453492366093,-76.05744024869955,302.82844775968834,-80.43563215595537,302.82844775968834,-80.43563215595537,0.0,0.0,21.411450438218864,5.415006858510232,281.41699732146947,-85.85063901446561,302.82844775968834,-80.43563215595537,10.516901476920948,4.378191907255832,0.0,0.0,111.07957131963012,-61.736823316491204,96.08113770170823,-25.364728384000415,74.25628830013116,1.2509126860259983,21.411450438218864,5.415006858510232,9,1.0944414951961132e-15,734.0080716104111,1.0153361805557765e-15,734.0080716104111,1.1102230246251565e-13,0.0,0.0,1.05293921136589,0.0
0.5064122668225223,314.78144404662635,-75.98069794431495,302.1701844613,-81.08663267377946,255.9254024776062,-51.489837231780356,46.24478198369377,-29.596795441999106,20.247149680653152,4.998499120118526,281.92303478064684,-86.08513179389801,302.1701844613,-81.08663267377946,12.611259585326376,5.1059347294645105,0.0,0.0,111.36887231800259,-61.86339425830025,96.72970857769513,-25.546671893767254,73.82445388494908,1.3249343581695285,20.247149680653152,4.998499120118526,8,1.0437237435580804e-15,684.2778046632292,9.105691773874998e-16,684.2778046632292,1.1102230246251565e-13,0.0,0.1151652262431444,1.0364870361882979,0.1151652262431444
0.5092733530757568,317.7589483252159,-76.10257670897803,302.7994356267606,-81.98888876717257,262.7541285394956,-56.03647444105542,40.04530708726503,-25.95241432611715,18.998770481242836,4.572639009249688,283.8006651455178,-86.5615277764223,302.7994356267606,-81.98888876717257,14.95951269845529,5.886312058194539,0.0,0.0,112.00506081058272,-62.216261056049305,97.33490101319902,-25.722668384865017,74.46070332173606,1.377401664492055,18.998770481242836,4.572639009249688,8,1.0595221849850267e-15,637.4679629620684,9.15895463413774e-16,637.4679629620684,1.1102230246251565e-13,0.0,0.0987130510655525,1.0200348610107062,0.0987130510655525
0.5121344393289915,321.6352522996736,-76.22043775133234,304.0572085212387,-82.93764621251538,270.3464662163903,-60.8175921178763,33.710742304848395,-22.120054094639073,17.64192704468509,4.13246346227216,286.41528147655356,-87.07010967478749,304.0572085212387,-82.93764621251538,17.578043778434882,6.717208461183033,0.0,0.0,112.63282010143392,-62.56380710995195,97.97005515298339,-25.901556981598738,75.81240622213627,1.39525441676318,17.64192704468509,4.13246346227216,8,1.31979295365195e-15,594.0265634431357,1.0246561139816893e-15,594.0265634431357,1.1102230246251565e-13,0.0,0.08226087588795994,1.0035826858331136,0.08226087588795994
0.514995525582226,327.50405688626626,-76.30150447947382,307.0202799763921,-83.8975404241585,279.7798346893976,-65.80195947099867,27.240445286994486,-18.09558095315984,16.13544751666966,3.671929716011702,290.8848324597225,-87.56947014017027,307.0202799763921,-83.8975404241585,20.483776909874173,7.596035944684688,0.0,0.0,113.24950473695162,-62.90472919762621,98.66510377838655,-26.086560148474547,78.97022394438429,1.421819205930511,16.13544751666966,3.671929716011702,8,8.468036941788712e-16,554.0422250181424,1.857373775592529e-15,554.0422250181424,2.220446049250313e-13,0.0,0.06580870071036804,0.9871305106555218,0.06580870071036804
0.5178566118354606,331.77662615052037,-76.45019119852245,308.0824704932791,-84.96989467695633,287.44841387203036,-71.09488310351506,20.63405662124876,-13.87501157344127,14.448883496954227,3.1889434242646395,293.6335869963249,-88.15883810122097,308.0824704932791,-84.96989467695633,23.694155657241247,8.51970347843388,0.0,0.0,113.85262878215113,-63.237833990882734,99.43676413581484,-26.279695219777352,80.34419407835894,1.3586911094390786,14.448883496954227,3.1889434242646395,8,1.0262012490008757e-15,517.3866094056203,2.195769984205651e-15,517.3866094056203,3.3306690738754696e-13,0.0,0.04935652553277636,0.97067833547793,0.04935652553277636
0.5207176980886953,328.9049260646543,-79.06525380522378,321.59072877809155,-82.26075605159193,307.6991391671783,-72.80617419629826,13.891589610913229,-9.454581855293668,24.64425668843266,6.491217565775475,296.94647208965887,-88.75197361736738,321.59072877809155,-82.26075605159193,7.314197286562758,3.1955022463681484,0.0,0.0,114.44060608220033,-63.56240325537678,100.33603202745972,-26.487994646612705,82.16983397999884,1.298424284622115,24.64425668843266,6.491217565775475,9,2.187987742699422e-15,896.4610957930578,1.1553022992263008e-15,896.4610957930578,2.220446049250313e-13,0.0,0.0329043503551838,1.0858435617210738,0.0329043503551838
0.5235787843419298,331.7536444818289,-79.2359966612177,322.53735088698244,-83.15991768798429,315.5239694142553,-78.32919543390918,7.013381472727133,-4.830722254075113,23.86082900292135,6.163229458546958,298.67652188406106,-89.32314714653124,322.53735088698244,-83.15991768798429,9.216293594846517,3.9239210267665863,0.0,0.0,115.01707285280074,-63.879989712008054,101.31301958102532,-26.7068036894046,82.34642945023501,1.2636462548814364,23.86082900292135,6.163229458546958,9,1.7253262675792612e-15,832.6991535293312,1.0074208631499752e-15,832.6991535293312,1.1102230246251565e-13,0.0,0.0164521751775919,1.069391386543482,0.0164521751775919
0.5264398705951644,332.06599233413107,-79.24858077281284,320.669405804085,-83.97439935242221,320.669405804085,-83.97439935242221,0.0,0.0,22.87620270024341,5.780274978686187,297.79320310384156,-89.75467433110839,320.669405804085,-83.97439935242221,11.396586530046081,4.725818579609369,0.0,0.0,115.59300779195182,-64.1953700718258,102.07180862384918,-26.89695231218289,80.12838668804056,1.3376480529003203,22.87620270024341,5.780274978686187,9,1.1532415654337233e-15,773.1864530370897,1.7793431761605947e-15,773.1864530370897,2.220446049250313e-13,0.0,0.0,1.0529392113658902,0.0
0.529300956848399,333.59386451482465,-78.95555283037342,319.72072875142953,-84.55505942445225,271.9150367016203,-53.96269250875139,47.80569204980924,-30.592366915700865,21.70679454528139,5.354329838997161,298.0139342061482,-89.90938926344944,319.72072875142953,-84.55505942445225,13.873135763395105,5.599506594078829,0.0,0.0,115.80870948835597,-64.27260183928907,102.68658552735597,-27.06822208540141,79.51863919043623,1.4314346612410276,21.70679454528139,5.354329838997161,8,1.4107118461453719e-15,717.7470041649517,1.0977531524343648e-15,717.7470041649517,8.326672684688674e-14,0.0,0.11516522624314462,1.0364870361882983,0.11516522624314462
