time_s,total_vertical_force_n,total_pitch_moment_nm,raw_bem_vertical_force_n,raw_bem_pitch_moment_nm,resolved_station_bem_vertical_force_n,resolved_station_bem_pitch_moment_nm,transom_extrapolation_vertical_force_n,transom_extrapolation_pitch_moment_nm,pre_chine_bem_vertical_force_n,pre_chine_bem_pitch_moment_nm,post_chine_bem_vertical_force_n,post_chine_bem_pitch_moment_nm,bem_vertical_force_n,bem_pitch_moment_nm,front_vertical_force_n,front_pitch_moment_nm,transom_vertical_force_n,transom_pitch_moment_nm,longitudinal_bin_aft_post_chine_vertical_force_n,longitudinal_bin_aft_post_chine_pitch_moment_nm,longitudinal_bin_middle_post_chine_vertical_force_n,longitudinal_bin_middle_post_chine_pitch_moment_nm,longitudinal_bin_forward_post_chine_vertical_force_n,longitudinal_bin_forward_post_chine_pitch_moment_nm,longitudinal_bin_pre_chine_vertical_force_n,longitudinal_bin_pre_chine_pitch_moment_nm,active_plane_count,potential_bvp_relative_residual,potential_bvp_condition_number,pressure_bvp_relative_residual,pressure_bvp_condition_number,free_surface_pressure_max_abs_pa,contact_constraint_max_abs_m,aftmost_resolved_station_x_m,foremost_resolved_station_x_m,transom_coverage_gap_m
0.0,292.5704552137069,-35.417815755750134,285.1046529995691,-40.37114395683065,285.1046529995691,-40.37114395683065,0.0,0.0,67.68448498272278,23.62145692222895,217.42016801684636,-63.99260087905964,285.1046529995691,-40.37114395683065,7.465802214137772,4.953328201080517,0.0,0.0,84.6923822622003,-47.1576421291067,70.18642779001648,-18.576360646924883,62.5413579646296,1.7414018969719578,67.68448498272278,23.62145692222895,11,1.1995856147431016e-15,963.6741823512789,1.4712670808786314e-15,963.6741823512789,1.1102230246251565e-13,9.71445146547012e-17,0.0,1.3161740142073626,0.0
0.002861086253234589,293.3180829466173,-33.46128295837539,283.7279734043217,-39.726674313879585,248.73665593706434,-17.32779186357388,34.991317467257346,-22.398882450305706,67.17306192109037,23.23168638464587,216.55491148323134,-62.95836069852545,283.7279734043217,-39.726674313879585,9.590109542295636,6.265391355504195,0.0,0.0,83.39331682814324,-46.39725195211227,69.71597466404808,-18.439520932808335,63.445619991040004,1.8784121863951597,67.17306192109037,23.23168638464587,10,1.143769853534889e-15,891.8496813558669,1.4614814396621579e-15,891.8496813558669,1.1102230246251565e-13,0.0,0.1151652262431444,1.2997218390297705,0.1151652262431444
0.005722172506469178,294.379613150414,-32.046559766983684,282.43339642494726,-39.730240697400944,252.5810764358417,-20.381049654078083,29.852319989105553,-19.34919104332286,65.98167311548706,22.498060415069894,216.45172330946016,-62.2283011124708,282.43339642494726,-39.730240697400944,11.946216725466748,7.683680930417261,0.0,0.0,82.5806495484746,-45.942640090618355,69.29293809289051,-18.318346655888682,64.57813566809506,2.032685634036241,65.98167311548706,22.498060415069894,10,1.151176735850971e-15,826.5851396391458,1.2490416349909985e-15,826.5851396391458,8.326672684688674e-14,0.0,0.09871305106555228,1.2832696638521786,0.09871305106555228
0.008583258759703769,290.19348327957823,-31.713000396483736,275.6704389853005,-40.90729435852998,250.86849710543797,-24.631501619682894,24.80194187986254,-16.275792738847088,61.66677990992984,21.051572071225067,214.0036590753707,-61.958866429755105,275.6704389853005,-40.90729435852998,14.523044294277696,9.194293962046247,0.0,0.0,81.9142425369191,-45.56911443716165,68.94593290193563,-18.22085411851956,63.14348363651597,1.831102125926101,61.66677990992984,21.051572071225067,10,1.1210963381357849e-15,764.8942987624594,1.453199041079287e-15,764.8942987624594,2.220446049250313e-13,0.0,0.08226087588796038,1.2668174886745864,0.08226087588796038
0.011444345012938357,288.2054403571984,-31.01228181093069,270.89587061485076,-41.79611816505172,251.06948487072606,-28.624908966517182,19.826385744124707,-13.171209198534541,59.12397352342961,20.010816114144625,211.77189709142118,-61.80693427919638,270.89587061485076,-41.79611816505172,17.30956974234765,10.783836354121032,0.0,0.0,81.42290253218009,-45.29380761906349,68.67724671524579,-18.147517590590233,61.67174784399527,1.6343909304573643,59.12397352342961,20.010816114144625,10,9.296154768483957e-16,707.2224823744494,1.1893027522894792e-15,707.2224823744494,2.220446049250313e-13,0.0,0.06580870071036804,1.2503653134969945,0.06580870071036804
0.014305431266172945,288.2147844503003,-30.024590565287617,267.9199040048671,-42.46403841089358,253.03392608683768,-32.45392191272197,14.885977918029397,-10.010116498171612,57.62573363845091,19.201088280400356,210.29417036641618,-61.66512669129395,267.9199040048671,-42.46403841089358,20.29488044543322,12.43944784560596,0.0,0.0,81.06860985743572,-45.09562767916839,68.4709044324035,-18.09276549418775,60.754656076576964,1.5232664820621835,57.62573363845091,19.201088280400356,10,1.4960818404868363e-15,653.7650758391525,1.4463947955749742e-15,653.7650758391525,1.1102230246251565e-13,0.0,0.04935652553277614,1.2339131383194024,0.04935652553277614
0.017166517519407537,289.60600282371735,-28.889950049435082,266.1377781022606,-43.038772416994505,256.1881357641585,-36.26698136033252,9.94964233810208,-6.771791056661982,56.464493719125436,18.459677504170813,209.67328438313513,-61.49844992116529,266.1377781022606,-43.038772416994505,23.468224721456746,14.148822367559422,0.0,0.0,80.81906347749585,-44.956656905608405,68.32755927010213,-18.053966500166204,60.52666163553715,1.5121734846093275,56.464493719125436,18.459677504170813,10,9.009999436697112e-16,604.6898588596011,9.840457627737867e-16,604.6898588596011,1.1102230246251565e-13,0.0,0.03290435035518402,1.2174609631418103,0.03290435035518402
0.020027603772642125,291.69985275658485,-27.729448165820585,264.8807918731767,-43.62967203719637,259.8870643695286,-40.190048901451235,4.993727503648074,-3.439623135745137,55.22779247710976,17.695316178068403,209.6529993960669,-61.32498821526471,264.8807918731767,-43.62967203719637,26.819060883408152,15.900223871375788,0.0,0.0,80.65095569720458,-44.86371395024025,68.23587251436886,-18.02771924173044,60.76617118449342,1.5664449767059878,55.22779247710976,17.695316178068403,10,1.07077635453661e-15,559.9676507042022,8.274782309860418e-16,559.9676507042022,2.220446049250313e-13,0.0,0.01645217517759212,1.2010087879642184,0.01645217517759212
0.022888690025876714,285.5806142965613,-31.96865436173254,276.7206202044321,-37.89727382633012,276.7206202044321,-37.89727382633012,0.0,0.0,66.29802735199813,23.203663702487383,210.422592852434,-61.100937528817525,276.7206202044321,-37.89727382633012,8.859994092129194,5.928619464597582,0.0,0.0,80.55127153855632,-44.80874116860778,68.17429995607415,-18.00903180940038,61.69702135780354,1.71683544919064,66.29802735199813,23.203663702487383,11,1.0057568616354632e-15,872.856631266046,1.5000501399662746e-15,872.856631266046,1.1102230246251565e-13,3.469446951953614e-18,0.0,1.3161740142073626,0.0
0.025749776279111302,287.6117043200526,-30.73429380509858,276.55057763334275,-38.02385766374488,243.00285280501018,-16.550767952028252,33.547724828332576,-21.473089711716625,65.63203733420278,22.77899624233202,210.91854029914003,-60.80285390607692,276.55057763334275,-38.02385766374488,11.061126686709839,7.289563858646296,0.0,0.0,80.29295289946661,-44.643557704076294,68.13091242046363,-17.996246494463016,62.494674979209776,1.8369502924623902,65.63203733420278,22.77899624233202,10,1.0719797767611848e-15,809.6624382763263,1.1443144176599284e-15,809.6624382763263,2.220446049250313e-13,0.0,0.1151652262431444,1.2997218390297705,0.1151652262431444
0.02861086253234589,289.9758513647436,-29.85979272164073,276.507973886887,-38.59941748972716,247.55851030107306,-19.836214333434754,28.94946358581393,-18.763203156292406,64.52901718006835,22.09426193627293,211.97895670681865,-60.693679426000074,276.507973886887,-38.59941748972716,13.467877477856655,8.739624768086431,0.0,0.0,80.35300471066289,-44.682498523820456,68.09951323343313,-17.988758347078225,63.526438762722634,1.9775774448985999,64.52901718006835,22.09426193627293,10,9.5677558495595e-16,751.922449709298,1.6752159842338951e-15,751.922449709298,1.1102230246251565e-13,0.0,0.09871305106555206,1.2832696638521786,0.09871305106555206
0.03147194878558048,286.8990726542015,-29.993322783511537,270.82966445985875,-40.25908530791082,246.53074245204832,-24.31368593699503,24.298922007810432,-15.945399370915794,60.320268871135596,20.699797605349836,210.50939558872315,-60.958882913260624,270.82966445985875,-40.25908530791082,16.069408194342778,10.265762524399285,0.0,0.0,80.44019096991762,-44.735894103014175,68.0787467539021,-17.986307037717197,61.99045786490343,1.763318227470748,60.320268871135596,20.699797605349836,10,1.4600968667928873e-15,697.795628774912,1.4074131600531088e-15,697.795628774912,2.220446049250313e-13,0.0,0.08226087588796016,1.2668174886745864,0.08226087588796016
0.034333035038815074,285.93054149211366,-29.662974640679924,267.07540342287484,-41.518521684618435,247.4879555643427,-28.506129187134576,19.58744785853213,-13.012392497483859,57.912812202366155,19.70136455325968,209.16259122050872,-61.21988623787814,267.07540342287484,-41.518521684618435,18.85513806923882,11.855547043938511,0.0,0.0,80.54987554643358,-44.80124284264039,68.0708654404468,-17.98870580302885,60.54185023362833,1.57006240779112,57.912812202366155,19.70136455325968,10,1.302847220382938e-15,647.518213698699,2.9737644674445218e-15,647.518213698699,1.1102230246251565e-13,0.0,0.06580870071036804,1.2503653134969945,0.06580870071036804
0.03719412129204966,286.722908854768,-29.00191793831884,264.90812105269674,-42.49908499086581,250.1003093074178,-32.541543464974296,14.80781174527894,-9.957541525891514,56.476546879308195,18.908668828560344,208.43157417338858,-61.40775381942619,264.90812105269674,-42.49908499086581,21.81478780207126,13.497167052546969,0.0,0.0,80.67787442853636,-44.87641470953807,68.07826389558605,-17.995628112962844,59.675435849266165,1.4642890030747253,56.476546879308195,18.908668828560344,10,9.03996319550098e-16,600.9414578318698,1.3940615520081191e-15,600.9414578318698,2.220446049250313e-13,0.0,0.04935652553277614,1.2339131383194024,0.04935652553277614
0.04005520754528425,288.68837949412716,-28.163821001303333,263.7499584609102,-43.34325600185497,253.7962443486911,-36.568691558452514,9.953714112219103,-6.774564443402454,55.3297680580378,18.169242851057803,208.42019040287238,-61.51249885291273,263.7499584609102,-43.34325600185497,24.938421033216958,15.179435000551633,0.0,0.0,80.82011210996507,-44.959399989009626,68.1134902539102,-18.008109343649277,59.4865880389971,1.4550104797461856,55.3297680580378,18.169242851057803,10,1.464293317197628e-15,558.1403884996016,1.5165340458575422e-15,558.1403884996016,2.220446049250313e-13,0.0,0.03290435035518402,1.2174609631418103,0.03290435035518402
0.042916293798518836,291.2061755103325,-27.274125286457505,262.98969224511086,-44.16591312602148,257.970193450149,-40.70853818177102,5.019498794961862,-3.4573749442504607,54.09040066907244,17.40093186111943,208.89929157603845,-61.56684498714094,262.98969224511086,-44.16591312602148,28.21648326522166,16.891787839563975,0.0,0.0,80.97459317606888,-45.049070168791204,68.17425430328659,-18.025424977714387,59.75044409668298,1.507650159364644,54.09040066907244,17.40093186111943,10,1.2932249361317963e-15,519.0900325321239,1.1845323891150374e-15,519.0900325321239,2.220446049250313e-13,0.0,0.01645217517759212,1.2010087879642184,0.01645217517759212
0.04577738005175343,285.68039157356395,-31.591787801485815,275.50108108702364,-38.46101446586027,275.50108108702364,-38.46101446586027,0.0,0.0,65.42986178271143,23.078107487943072,210.0712193043122,-61.539121953803374,275.50108108702364,-38.46101446586027,10.1793104865403,6.869226664374457,0.0,0.0,81.14415641464105,-45.1463713908618,68.24611180762686,-18.044581466791286,60.68095108204428,1.6518309038497208,65.42986178271143,23.078107487943072,11,9.662690084038565e-16,800.4284038110507,1.4131804872852436e-15,800.4284038110507,2.220446049250313e-13,0.0,0.0,1.3161740142073626,0.0
0.04863846630498802,288.1049991759083,-30.532678445717416,275.6957554243742,-38.78104829914233,241.76027123701658,-17.05920976814423,33.935484187357645,-21.7218385309981,64.75252823770707,22.621432387271952,210.94322718666714,-61.402480686414265,275.6957554243742,-38.78104829914233,12.409243751534044,8.24836985342491,0.0,0.0,81.10913702662523,-45.10687577662222,68.32264332389059,-18.065389899668716,61.51144683615132,1.769784989876669,64.75252823770707,22.621432387271952,10,8.784263121057729e-16,743.9650477419254,1.3787275936747763e-15,743.9650477419254,1.1102230246251565e-13,0.0,0.11516522624314418,1.2997218390297705,0.11516522624314418
0.051499552558222604,291.4907118131501,-29.682481978549873,276.6715882668265,-39.382780857545214,247.30722380845376,-20.350268063038442,29.364364458372762,-19.032512794506772,64.06869254459744,22.019111115254645,212.60289572222905,-61.401891972799845,276.6715882668265,-39.382780857545214,14.819123546323594,9.70029887899534,0.0,0.0,81.36487002179506,-45.256120866016815,68.40282317478923,-18.088595697838628,62.835202525644775,1.942824591055583,64.06869254459744,22.019111115254645,10,1.209393183701279e-15,692.3233738071705,2.1491943670147134e-15,692.3233738071705,1.1102230246251565e-13,0.0,0.09871305106555206,1.2832696638521786,0.09871305106555206
0.054360638811457196,288.48522265903205,-30.0161156782887,271.08618927412476,-41.22933504675231,246.37960013709454,-25.016165306003984,24.70658913703022,-16.213169740748327,59.676904657179115,20.572940159976632,211.40928461694565,-61.802275206728964,271.08618927412476,-41.22933504675231,17.39903338490726,11.213219368463612,0.0,0.0,81.62362027408462,-45.406107826263025,68.48981185395927,-18.115170328897488,61.29585248890176,1.7190029484315659,59.676904657179115,20.572940159976632,10,1.5089093500054731e-15,644.233460817082,1.0673314860495134e-15,644.233460817082,2.220446049250313e-13,0.0,0.08226087588796016,1.2668174886745864,0.08226087588796016
0.05722172506469178,287.78852710882126,-29.84782786350174,267.6490509293058,-42.623826815720435,247.69041462692257,-29.364708137345247,19.95863630238324,-13.259118678375188,57.22224140802639,19.548950420165724,210.42680952127947,-62.172777235886215,267.6490509293058,-42.623826815720435,20.139476179515466,12.775998952218693,0.0,0.0,81.88600457942145,-45.55725329961521,68.58849097904084,-18.14578188034225,59.952313962817165,1.5302579440712734,57.22224140802639,19.548950420165724,10,1.0556264547020246e-15,599.820513629355,2.6096703280507334e-15,599.820513629355,2.220446049250313e-13,0.0,0.06580870071036804,1.2503653134969945,0.06580870071036804
0.06008281131792637,288.8303390775469,-29.352406998764756,265.7989324163191,-43.730568495489536,250.68168559932258,-33.564886506763855,15.117246816996499,-10.16568198872568,55.737297662813155,18.729632855587475,210.06163475350593,-62.46020135107702,265.7989324163191,-43.730568495489536,23.03140666122782,14.378161496724779,0.0,0.0,82.15212823865612,-45.70981752960738,68.70186049325592,-18.180483339272406,59.207646021593895,1.4300995178027733,55.737297662813155,18.729632855587475,10,1.0722851332835533e-15,558.745148709752,1.499560323789806e-15,558.745148709752,1.1102230246251565e-13,0.0,0.04935652553277614,1.2339131383194024,0.04935652553277614
0.06294389757116096,290.98737111908054,-28.686359887304445,264.9211100311164,-44.696237579964446,254.74190577320076,-37.76818476805826,10.179204257915671,-6.928052811906184,54.53858717504399,17.965201372689684,210.3825228560724,-62.66143895265408,264.9211100311164,-44.696237579964446,26.066261087964094,16.00987769266,0.0,0.0,82.4213158000523,-45.86370805344839,68.84093267262674,-18.220237700056416,59.120274383393365,1.4225068008507051,54.53858717504399,17.965201372689684,10,1.2988034982406148e-15,520.9721482916569,1.5183401723106011e-15,520.9721482916569,1.1102230246251565e-13,0.0,0.03290435035518402,1.2174609631418103,0.03290435035518402
0.06580498382439555,293.6543746591684,-27.970779732249927,264.4183904058244,-45.63273195614951,259.2771557488001,-42.09150440170919,5.141234657024313,-3.5412275544403258,53.25955982770861,17.177905093504123,211.1588305781158,-62.81063704965362,264.4183904058244,-45.63273195614951,29.235984253343965,17.661952223899586,0.0,0.0,82.69410795209069,-46.01925875402542,69.00354966075561,-18.264331651463205,59.46117296526951,1.4729533558350028,53.25955982770861,17.177905093504123,10,1.1087599892377534e-15,486.4512786367462,9.482261867354898e-16,486.4512786367462,1.1102230246251565e-13,0.0,0.0164521751775919,1.2010087879642184,0.0164521751775919
0.06866607007763015,288.56461120293693,-32.27183556599112,277.2558315416276,-39.96425285254523,277.2558315416276,-39.96425285254523,0.0,0.0,64.6670347568144,22.91352742415699,212.58879678481324,-62.87778027670228,277.2558315416276,-39.96425285254523,11.308779661309355,7.69241728655411,0.0,0.0,82.97513207816003,-46.17847603594868,69.1761195709719,-18.309841276251415,60.437545135681304,1.6105370354978135,64.6670347568144,22.91352742415699,11,1.1246780933679844e-15,743.8621793842018,1.8188663491422847e-15,743.8621793842018,1.1102230246251565e-13,0.0,0.0,1.3161740142073626,0.0
0.07152715633086473,291.13191111895014,-31.353309627392957,277.6112971811691,-40.4126165395671,242.80700845893924,-18.133924327481452,34.80428872222987,-22.278692212085645,63.91270358157544,22.413387406551287,213.69859359959366,-62.82600394611839,277.6112971811691,-40.4126165395671,13.52061393778104,9.05930691217414,0.0,0.0,83.03649181939154,-46.19142090763289,69.35285586568142,-18.356617492897847,61.30924591452069,1.7220344544123236,63.91270358157544,22.413387406551287,10,1.0299342672555598e-15,692.5618696998329,2.2547836492543427e-15,692.5618696998329,1.1102230246251565e-13,0.0,0.11516522624314418,1.2997218390297707,0.11516522624314418
0.07438824258409932,292.89298894026484,-30.97774834135159,277.003690788833,-41.46245212436381,246.84919607519384,-21.917366858980557,30.154494713639167,-19.54508526538325,62.104179023949534,21.547309412320118,214.89951176488347,-63.00976153668394,277.003690788833,-41.46245212436381,15.88929815143185,10.484703783012218,0.0,0.0,83.39574801434095,-46.39817145143661,69.53306029206664,-18.405506110968616,61.970703458475874,1.7939160257213018,62.104179023949534,21.547309412320118,10,1.1931230652901704e-15,645.7300631142131,1.3513148952727739e-15,645.7300631142131,8.326672684688674e-14,0.0,0.09871305106555206,1.2832696638521786,0.09871305106555206
0.0772493288373339,291.13940750306614,-31.2187240309587,272.73303780486947,-43.177031368958524,247.33105091722211,-26.50727098449397,25.401986887647354,-16.669760384464553,58.48103626683421,20.27293679263896,214.2520015380353,-63.44996816159751,272.73303780486947,-43.177031368958524,18.40636969819667,11.958307337999823,0.0,0.0,83.75427539908765,-46.60355805557647,69.71943141132238,-18.457560764374968,60.778294727625266,1.6111506583539281,58.48103626683421,20.27293679263896,10,1.165430519993202e-15,602.3736518590271,1.9842103189984305e-15,602.3736518590271,2.220446049250313e-13,0.0,0.08226087588796016,1.2668174886745867,0.08226087588796016
0.0801104150905685,291.2723702875247,-31.063900781683927,270.2084721916396,-44.53438391790351,249.66464178690515,-30.88637992911447,20.54383040473445,-13.648003988789043,56.39616891603674,19.325157870610965,213.8123032756029,-63.859541788514505,270.2084721916396,-44.53438391790351,21.06389809588513,13.470483136219583,0.0,0.0,84.11323787299217,-46.8082704391011,69.91610777708463,-18.513486516694925,59.78295762552609,1.4622151672814994,56.39616891603674,19.325157870610965,10,1.523159702205681e-15,562.5119422145696,1.2112948176001681e-15,562.5119422145696,2.220446049250313e-13,0.0,0.06580870071036804,1.2503653134969945,0.06580870071036804
0.08297150134380309,292.7690071538103,-30.662025510475964,268.9145020020638,-45.67426981513455,253.3371947279184,-35.19916766049306,15.577307274145397,-10.47510215464149,55.0316207879231,18.525761776953587,213.8828812141407,-64.20003159208815,268.9145020020638,-45.67426981513455,23.85450515174655,15.012244304658589,0.0,0.0,84.47335718598342,-47.01288244770749,70.1263985689641,-18.573448800271425,59.28312545919316,1.3862996558907739,55.0316207879231,18.525761776953587,10,1.0536514771373226e-15,525.7208809330898,1.305193630810703e-15,525.7208809330898,1.1102230246251565e-13,0.0,0.04935652553277592,1.2339131383194024,0.04935652553277592
0.08583258759703767,295.17474772688564,-30.12850181484564,268.4033651603527,-46.703732044606454,257.90365410808784,-39.55752556235896,10.499711052264843,-7.146206482247493,53.864780464750325,17.763702936375225,214.53858469560234,-64.46743498098166,268.4033651603527,-46.703732044606454,26.771382566532957,16.575230229760813,0.0,0.0,84.83451103624174,-47.217598530958185,70.36144782984037,-18.638452453175823,59.34262582952023,1.388616003152336,53.864780464750325,17.763702936375225,10,1.2675659583426519e-15,491.876738677555,3.0394744066455387e-15,491.876738677555,1.1102230246251565e-13,0.0,0.03290435035518402,1.2174609631418105,0.03290435035518402
0.08869367385027227,299.8565328688599,-29.112780631973706,270.04822581877704,-47.26446336714969,264.73998309971313,-43.608200788673315,5.308242719063912,-3.6562625784763725,54.226728820664974,17.38973554718305,215.8214969981121,-64.65419891433275,270.04822581877704,-47.26446336714969,29.808307050082853,18.15168273517598,0.0,0.0,85.19768108432878,-47.423000259780125,70.6201606058191,-18.707843557250214,60.00365530796424,1.4766449026975863,54.226728820664974,17.38973554718305,10,1.3037997418006565e-15,460.89595384964645,1.3966506214477605e-15,460.89595384964645,2.220446049250313e-13,0.0,0.0164521751775919,1.2010087879642184,0.0164521751775919
0.09155476010350685,294.8797338783344,-33.460811800655435,282.729231115729,-41.78414175990352,282.729231115729,-41.78414175990352,0.0,0.0,65.19434698279039,23.00769327665079,217.53488413293869,-64.79183503655435,282.729231115729,-41.78414175990352,12.150502762605376,8.323329959248083,0.0,0.0,85.56787026650804,-47.631301638796415,70.88861658966594,-18.77846091173103,61.07839727676469,1.6179275139731146,65.19434698279039,23.00769327665079,11,1.471000255097266e-15,700.933676673279,1.427653916145767e-15,700.933676673279,1.1102230246251565e-13,0.0,0.0,1.3161740142073626,0.0
0.09441584635674144,297.13764964039973,-32.78819800312442,282.8333008278033,-42.43987866144914,246.8611898780508,-19.41309401657759,35.97211094975253,-23.026784644871555,63.97624510962011,22.373647286938343,218.8570557181832,-64.8135259483875,282.8333008278033,-42.43987866144914,14.304348812596409,9.651680658324722,0.0,0.0,85.71173328806776,-47.68901614367499,71.15941280556875,-18.84974584704662,61.98590962454668,1.7252360423341315,63.97624510962011,22.373647286938343,10,1.5985418694524757e-15,653.5078837242027,1.3267359295203293e-15,653.5078837242027,1.1102230246251565e-13,0.0,0.1151652262431444,1.2997218390297707,0.1151652262431444
0.09727693260997604,299.75166446826665,-32.41677338689583,283.15559330918535,-43.44400994374561,251.9616255139487,-23.224853961287664,31.19396779523666,-20.21915598245795,62.515873432501245,21.577516669055733,220.6397198766841,-65.02152661280132,283.15559330918535,-43.44400994374561,16.596071159081315,11.02723655684979,0.0,0.0,86.15885698822619,-47.944178591676625,71.43023808069297,-18.922186202668456,63.05062480776493,1.84483818154375,62.515873432501245,21.577516669055733,10,9.09906457529366e-16,610.3595551079065,1.6551978912845605e-15,610.3595551079065,2.220446049250313e-13,0.0,0.09871305106555206,1.2832696638521786,0.09871305106555206
0.10013801886321062,297.48745149817205,-32.91873848086868,278.46845034014405,-45.36003012184224,252.16846929994523,-28.100801069394805,26.299981040198816,-17.259229052447438,58.40608116305333,20.1929585541672,220.06236917709066,-65.55298867600939,278.46845034014405,-45.36003012184224,19.019001158028022,12.441291640973562,0.0,0.0,86.60369361615889,-48.197133620118244,71.70349378512455,-18.99683130701876,61.75518177580724,1.6409762511275972,58.40608116305333,20.1929585541672,10,8.410562201767282e-16,570.626859623986,1.5834558800498448e-15,570.626859623986,1.1102230246251565e-13,0.0,0.08226087588796038,1.2668174886745864,0.08226087588796038
0.10299910511644521,297.4427003241774,-32.95096276943034,275.8756366781541,-46.83673037333813,254.5883267894457,-32.694726449888435,21.287309888708393,-14.142003923449693,56.13028487762157,19.20607557685988,219.7453518005325,-66.04280595019799,275.8756366781541,-46.83673037333813,21.567063646023335,13.885767603907787,0.0,0.0,87.04724433327897,-48.448453819647774,71.98441336455996,-19.074741056807575,60.71369410269355,1.4803889262573762,56.13028487762157,19.20607557685988,10,1.0659132319030607e-15,534.2183660170858,2.4962433570110943e-15,534.2183660170858,1.1102230246251565e-13,0.0,0.06580870071036804,1.2503653134969945,0.06580870071036804
0.1058601913696798,298.91555297646084,-32.707149001570244,274.68076711930865,-48.06033467235005,258.5273395444859,-37.1977845359917,16.15342757482273,-10.862550136358351,54.704072962375406,18.396405867919107,219.97669415693323,-66.45674054026912,274.68076711930865,-48.06033467235005,24.23478585715218,15.35318567077981,0.0,0.0,87.49031913887038,-48.69872913119548,72.27780896838647,-19.156508569472642,60.20856604967639,1.3984971603990033,54.704072962375406,18.396405867919107,10,1.0504985983520353e-15,500.6799458369905,1.6568531482206612e-15,500.6799458369905,1.1102230246251565e-13,0.0,0.04935652553277614,1.2339131383194024,0.04935652553277614
0.10872127762291439,303.11872567555787,-31.87044442381876,276.1014214694022,-48.70708105037073,265.2055169386412,-41.2912132166735,10.895904530761015,-7.415867833697234,55.15576512066852,18.066790402824168,220.94565634873373,-66.7738714531949,276.1014214694022,-48.70708105037073,27.017304206155657,16.83663662655197,0.0,0.0,87.93299415670529,-48.94825427366813,72.59307541232515,-19.243039280453416,60.41958677970331,1.4174221009266361,55.15576512066852,18.066790402824168,10,9.37614107079522e-16,469.8276751855716,9.086085152616617e-16,469.8276751855716,1.1102230246251565e-13,0.0,0.03290435035518402,1.2174609631418103,0.03290435035518402
0.11158236387614898,305.37619046232743,-31.628481731076693,275.46582141346164,-49.958231003773335,269.95354560672394,-46.16143164170512,5.512275806737705,-3.7967993620682137,53.25236092961967,17.104170262966157,222.2134604838419,-67.06240126673944,275.46582141346164,-49.958231003773335,29.91036904886579,18.329749272696642,0.0,0.0,88.37638872853663,-49.19769248982951,72.9294939608589,-19.333631824106217,60.90757779444637,1.4689230471962915,53.25236092961967,17.104170262966157,10,8.952551559051624e-16,441.5472272309978,8.418986864047886e-16,441.5472272309978,2.220446049250313e-13,0.0,0.01645217517759212,1.2010087879642184,0.01645217517759212
0.11444345012938356,299.5630351275797,-36.16195881892946,286.9222849261559,-44.87053128485425,286.9222849261559,-44.87053128485425,0.0,0.0,63.110536824632085,22.443336744129503,223.8117481015238,-67.31386802898373,286.9222849261559,-44.87053128485425,12.640750201423803,8.70857246592479,0.0,0.0,88.82550263538735,-49.449281917667484,73.27315956635198,-19.424898915138762,61.71308589978448,1.560312803822491,63.110536824632085,22.443336744129503,11,1.0409625335368867e-15,669.8581340866724,1.3753374934285808e-15,669.8581340866724,1.1102230246251565e-13,0.0,0.0,1.3161740142073626,0.0
0.11730453638261816,302.02317676641695,-35.5565817489398,287.31538155780873,-45.53576969124461,249.9299149569969,-21.60404650989338,37.38546660081184,-23.93172318135123,62.138863795629405,21.87749783057844,225.17651776217934,-67.41326752182309,287.31538155780873,-45.53576969124461,14.707795208608216,9.979187942304813,0.0,0.0,89.0360954733473,-49.54240201965567,73.61558291449244,-19.515832131360064,62.52483937433963,1.6449666291926377,62.138863795629405,21.87749783057844,10,1.08559492005963e-15,625.2349213843544,1.8658947058473056e-15,625.2349213843544,1.1102230246251565e-13,0.0,0.1151652262431444,1.2997218390297705,0.1151652262431444
0.12016562263585275,301.3112670676682,-35.93379396552574,284.4125538087317,-47.222942497588576,251.97247622006742,-26.195985703127235,32.44007758866425,-21.02695679446134,58.78626948895415,20.670483361843054,225.62628431977754,-67.89342585943163,284.4125538087317,-47.222942497588576,16.898713258936542,11.289148532062843,0.0,0.0,89.56188430478086,-49.84101187391835,73.95367723850379,-19.606596972678048,62.110722776492885,1.5541829871647437,58.78626948895415,20.670483361843054,10,9.78287149596144e-16,584.7935883102693,1.3510253846281296e-15,584.7935883102693,1.249000902703301e-13,0.0,0.09871305106555206,1.2832696638521786,0.09871305106555206
0.12302670888908733,302.0794417285933,-35.95209721479953,282.8706713271697,-48.58340171851327,255.50376058141967,-30.62396076546139,27.366910745750033,-17.95944095305188,56.82385062717847,19.787103211703254,226.04682069999123,-68.37050493021655,282.8706713271697,-48.58340171851327,19.20877040142356,12.631304503713741,0.0,0.0,90.08301578077537,-50.136177011906625,74.29034089908637,-19.698324444364168,61.6734640201295,1.4639965260542311,56.82385062717847,19.787103211703254,10,1.0558114407768669e-15,547.7321028999274,1.6330514692550226e-15,547.7321028999274,1.1102230246251565e-13,0.0,0.08226087588796038,1.2668174886745864,0.08226087588796038
0.12588779514232193,303.9149287807797,-35.77462132970457,282.2810871264726,-49.77368428160989,260.11781700133264,-35.049729527388024,22.163270125139945,-14.723954754221865,55.59762469325496,19.042044090923206,226.68346243321767,-68.81572837253313,282.2810871264726,-49.77368428160989,21.63384165430713,13.99906295190532,0.0,0.0,90.60015681643775,-50.42826502534607,74.63216030183237,-19.79249455811121,61.45114531494757,1.4050312109241503,55.59762469325496,19.042044090923206,10,1.0957958271385942e-15,513.8537856290652,2.0121861248673467e-15,513.8537856290652,3.3306690738754696e-13,0.0,0.06580870071036804,1.2503653134969945,0.06580870071036804
0.1287488813955565,308.13759490763766,-35.0391715195735,283.9671839832281,-50.42552505230404,267.14032206570664,-39.110112789001676,16.826861917521455,-11.315412263302363,56.203046748298036,18.77638745789975,227.76413723493005,-69.20191251020375,283.9671839832281,-50.42552505230404,24.170410924409563,15.386353532730542,0.0,0.0,91.11411431963222,-50.71782328227765,74.98533280709886,-19.890158580672868,61.664690108199004,1.4060693527467265,56.203046748298036,18.77638745789975,10,1.4308124627150835e-15,482.69673462433116,1.9978899892036747e-15,482.69673462433116,1.1102230246251565e-13,0.0,0.04935652553277614,1.2339131383194024,0.04935652553277614
0.1316099676487911,310.5000994612132,-34.898777449973295,283.6845300892908,-51.68637074372356,272.32895452561024,-43.95764563070955,11.355575563680532,-7.728725113014008,54.55251243562465,17.870146891961845,229.13201765366617,-69.55651763568545,283.6845300892908,-51.68637074372356,26.815569371922447,16.787593293750266,0.0,0.0,91.62516731690638,-51.00522010688937,75.36134887567187,-19.992633413985743,62.14550146108792,1.441335885189659,54.55251243562465,17.870146891961845,10,1.1417488469766388e-15,454.0390621323193,1.5168913177928025e-15,454.0390621323193,1.1102230246251565e-13,0.0,0.03290435035518402,1.2174609631418103,0.03290435035518402
0.13447105390202568,314.9178227226432,-34.28583111787838,285.35081038284096,-52.483481901728425,279.60348101667057,-48.524780106015754,5.747329366170391,-3.9587017957126704,54.44093244885214,17.37450107301494,230.9098779339888,-69.85798297474336,285.35081038284096,-52.483481901728425,29.56701233980224,18.197650783850044,0.0,0.0,92.13462958738202,-51.29121121529252,75.76041567179217,-20.099352469496665,63.01483267481459,1.5325807100458562,54.44093244885214,17.37450107301494,10,1.037077526906417e-15,427.7421047315638,1.5222888425688018e-15,427.7421047315638,2.220446049250313e-13,0.0,0.01645217517759212,1.2010087879642184,0.01645217517759212
0.1373321401552603,308.99524374795715,-38.843915195154295,296.2361567969967,-47.669116701129724,296.2361567969967,-47.669116701129724,0.0,0.0,63.597622912486564,22.504657277319154,232.6385338845101,-70.17377397844888,296.2361567969967,-47.669116701129724,12.759086950960475,8.825201505975432,0.0,0.0,92.6475700714451,-51.57808164472054,76.16858880976505,-20.206840066381318,63.82237500329997,1.611147732652988,63.597622912486564,22.504657277319154,11,1.293246548092863e-15,649.3120685498244,1.9924237984420504e-15,649.3120685498244,1.3877787807814457e-13,3.469446951953614e-18,0.0,1.3161740142073626,0.0
0.14019322640849488,312.83670893157677,-38.08751198291435,298.1136093870039,-48.11478508857118,259.08900507382396,-23.13369882980706,39.024604313179964,-24.981086258764122,63.572340481482506,22.15693632636905,234.5412689055215,-70.2717214149403,298.1136093870039,-48.11478508857118,14.723099544572822,10.027273105656834,0.0,0.0,92.9193895280324,-51.70499563938722,76.57642567172955,-20.313808432224008,65.04545370575951,1.7470826566709405,63.572340481482506,22.15693632636905,10,8.572055616450581e-16,606.576539582571,2.3128737497631644e-15,606.576539582571,1.1102230246251565e-13,0.0,0.11516522624314418,1.2997218390297707,0.11516522624314418
0.14305431266172947,311.3697259131382,-38.753463208160404,294.5676506197395,-50.017727434174446,260.6941336490447,-28.061610567871043,33.873516970694766,-21.956116866303404,59.602268245821705,20.80761604631715,234.96538237391775,-70.82534348049154,294.5676506197395,-50.017727434174446,16.80207529339871,11.264264226014042,0.0,0.0,93.50421550157968,-52.03624041862739,76.97930600685295,-20.42009104213794,64.48186086548512,1.6309879802737655,59.602268245821705,20.80761604631715,10,1.071556984233246e-15,567.9858537713382,1.6307522293096602e-15,567.9858537713382,1.1102230246251565e-13,0.0,0.09871305106555206,1.2832696638521786,0.09871305106555206
0.14591539891496405,311.7469563770445,-38.96213011615766,292.7537729657753,-51.49256335230626,264.16908057677324,-32.733949099758945,28.584692389002043,-18.758614252547318,57.372890718166936,19.872492033460098,235.38088224760838,-71.36505538576641,292.7537729657753,-51.49256335230626,18.993183411269218,12.530433236148601,0.0,0.0,94.08164143088189,-52.362587089475554,77.37856154135366,-20.526580359470366,63.92067927537284,1.5241120631795155,57.372890718166936,19.872492033460098,10,9.40273522684228e-16,532.7622521702002,1.1708974226857407e-15,532.7622521702002,1.1102230246251565e-13,0.0,0.08226087588796016,1.2668174886745867,0.08226087588796016
0.14877648516819864,313.41180822116286,-38.91880817651044,292.11762550074775,-52.73931242849673,268.9619848011442,-37.35608708976736,23.155640699603566,-15.383225338729375,56.07062180704837,19.122391923798602,236.04700369369937,-71.86170435229532,292.11762550074775,-52.73931242849673,21.294182720415126,13.820504251986293,0.0,0.0,94.65191420256664,-52.68415574748176,77.77999317126157,-20.63474994521053,63.61509631987116,1.4572013403969777,56.07062180704837,19.122391923798602,10,9.509180359989648e-16,500.6190434162054,1.540434132474234e-15,500.6190434162054,2.220446049250313e-13,0.0,0.06580870071036804,1.2503653134969945,0.06580870071036804
0.15163757142143322,317.5000854025821,-38.31078733432025,293.79666997290036,-53.44041745757235,276.21232510415297,-41.615629784269856,17.584344868747394,-11.824787673302495,56.61758430626638,18.85141016077654,237.17908566663397,-72.29182761834889,293.79666997290036,-53.44041745757235,23.703415429681737,15.129630123252102,0.0,0.0,95.21573657640869,-53.00139548381617,78.19005061994255,-20.745870654915343,63.77329847028275,1.4554385203826214,56.61758430626638,18.85141016077654,10,1.032807091553074e-15,471.09304148401964,1.4786586258287482e-15,471.09304148401964,2.220446049250313e-13,0.0,0.04935652553277614,1.2339131383194026,0.04935652553277614
0.1544986576746678,319.92277457360854,-38.24732959058909,293.70297462562934,-54.70068482797271,281.83391364147593,-46.62247735217289,11.869060984153407,-8.078207475799815,55.07689919644739,17.983089619168943,238.62607542918195,-72.68377444714163,293.70297462562934,-54.70068482797271,26.21979994797917,16.453355237383615,0.0,0.0,95.77357277006598,-53.31473037121023,78.61655737585502,-20.860991767195493,64.23594528326093,1.4919476912640803,55.07689919644739,17.983089619168943,10,1.0725858289020406e-15,443.9388618620357,1.9532936078186655e-15,443.9388618620357,1.1102230246251565e-13,0.0,0.03290435035518402,1.2174609631418105,0.03290435035518402
0.15735974392790242,324.33594460733417,-37.730315086745094,295.49312177132714,-55.51789335966552,289.48496738552933,-51.3795381693279,6.008154385797809,-4.13835519033762,54.9935216840198,17.50125894485707,240.4996000873073,-73.01915230452256,295.49312177132714,-55.51789335966552,28.842822836007034,17.78757827292043,0.0,0.0,96.32688658599622,-53.62499187118651,79.0591277243764,-20.97952515144479,65.11358577693467,1.5853647181087496,54.9935216840198,17.50125894485707,10,1.1768228048749158e-15,419.0002035713866,1.4712338928350035e-15,419.0002035713866,1.1102230246251565e-13,0.0,0.0164521751775919,1.2010087879642184,0.0164521751775919
0.160220830181137,319.21772748370944,-42.041353114178904,306.6906295038299,-50.72368518351499,306.6906295038299,-50.72368518351499,0.0,0.0,64.29436930587275,22.634042302571203,242.3962601979571,-73.35772748608615,306.6906295038299,-50.72368518351499,12.527097979879583,8.682332069336084,0.0,0.0,96.88057483750211,-53.93442371843095,79.50440360179707,-21.098067206417483,66.01128175865794,1.6747634387622696,64.29436930587275,22.634042302571203,11,1.059830301539763e-15,638.4128195472583,1.7724327936249166e-15,638.4128195472583,1.1102230246251565e-13,3.469446951953614e-18,0.0,1.3161740142073626,0.0
0.1630819164343716,321.11936710768333,-41.78643576272236,306.73599706185036,-51.599402549971074,265.91985032336305,-25.471499451239623,40.816146738487305,-26.12790309873145,62.854943097647165,21.958235179499553,243.88105396420326,-73.55763772947071,306.73599706185036,-51.599402549971074,14.38337004583295,9.81296678724871,0.0,0.0,97.18468043364346,-54.07863468197823,79.94258670503783,-21.21503753118143,66.75378682552198,1.736034483688961,62.854943097647165,21.958235179499553,10,9.923857947819434e-16,596.7542315918942,1.1573004585152e-15,596.7542315918942,1.1102230246251565e-13,0.0,0.1151652262431444,1.2997218390297707,0.1151652262431444
0.16594300268760617,320.5992507129625,-42.335883866677925,304.24893155821775,-53.31302059694801,268.8190981108411,-30.348164698551813,35.429833447376666,-22.964855898396195,59.6496498636205,20.80187831320349,244.59928169459724,-74.1148989101515,304.24893155821775,-53.31302059694801,16.35031915474472,10.977136730270084,0.0,0.0,97.8053848089294,-54.42982836746316,80.36957709379638,-21.330058637875787,66.42431979187145,1.6449880951874647,59.6496498636205,20.80187831320349,10,9.58636231705562e-16,559.2417646659261,1.7646592914196663e-15,559.2417646659261,1.1102230246251565e-13,0.0,0.09871305106555206,1.2832696638521786,0.09871305106555206
0.16880408894084076,321.5962282762354,-42.51177912671948,303.1693629409101,-54.682071644914714,273.270929106556,-35.06135022886113,29.89843383435408,-19.620721416053584,57.85072097512895,19.97674812525203,245.31864196578113,-74.6588197701667,303.1693629409101,-54.682071644914714,18.426865335325324,12.170292518195232,0.0,0.0,98.4160687545806,-54.77474810552695,80.78915276628045,-21.444183331328944,66.11342044492007,1.5601116666891954,57.85072097512895,19.97674812525203,10,9.306709014540363e-16,525.1037545763613,2.3736951029483033e-15,525.1037545763613,2.220446049250313e-13,0.0,0.08226087588796038,1.2668174886745867,0.08226087588796038
0.17166517519407534,325.07304083209607,-42.06894659608508,304.46056341535285,-55.457197981200295,280.2408995764159,-39.36712078296907,24.219663838936924,-16.090077198231228,58.20825444288377,19.707448022923714,246.2523089724691,-75.16464600412402,304.46056341535285,-55.457197981200295,20.612477416743225,13.38825138511522,0.0,0.0,99.0166099670045,-55.11329120819061,81.21007836648795,-21.559327977416316,66.02562063897668,1.507973181482889,58.20825444288377,19.707448022923714,10,1.243947587284887e-15,493.98464602144924,1.3013711052939602e-15,493.98464602144924,1.1102230246251565e-13,0.0,0.06580870071036804,1.2503653134969945,0.06580870071036804
0.17452626144730995,327.2731950464797,-42.10709112812848,304.3660315972306,-56.73425124513412,285.97426603688547,-44.36651564641082,18.391765560345107,-12.3677355987233,56.81666349068718,18.883162531811912,247.54936810654334,-75.61741377694601,304.3660315972306,-56.73425124513412,22.907163449249154,14.627160117005637,0.0,0.0,99.60751091037402,-55.445763232058255,81.64005195047903,-21.6770910310101,66.3018052456903,1.5054404861223674,56.81666349068718,18.883162531811912,10,1.1401328216423973e-15,465.41990345510845,1.2003358126208541e-15,465.41990345510845,6.245004513516506e-14,0.0,0.04935652553277592,1.2339131383194024,0.04935652553277592
0.17738734770054454,331.49881966254924,-41.66029177341365,306.18735901858975,-57.54375007865042,293.77402851448915,-49.0951108277911,12.4133305041006,-8.448639250859316,56.949003893991545,18.47080629362776,249.2383551245982,-76.01455637227818,306.18735901858975,-57.54375007865042,25.311460643959467,15.883458305236774,0.0,0.0,100.18925875362112,-55.77256175826312,82.09113359582152,-21.79913445175015,66.95796277515556,1.5571398377351073,56.949003893991545,18.47080629362776,10,1.0293817256711891e-15,439.14937929296826,1.2014068054143669e-15,439.14937929296826,2.220446049250313e-13,0.0,0.03290435035518402,1.2174609631418103,0.03290435035518402
0.18024843395377912,334.3913406705213,-41.60614938035246,306.5649157684902,-58.7599913760545,300.28178469553416,-54.432235585027854,6.283131072956053,-4.327755791026647,55.48379626978671,17.63274737070362,251.08111949870352,-76.39273874675808,306.5649157684902,-58.7599913760545,27.826424902031068,17.15384199570204,0.0,0.0,100.7638182225796,-56.09471640751461,82.56128711059642,-21.924629736945604,67.75601416552747,1.6266073977021236,55.48379626978671,17.63274737070362,10,1.1620660247918463e-15,415.0047994807136,1.563532846990972e-15,415.0047994807136,3.3306690738754696e-13,0.0,0.0164521751775919,1.2010087879642184,0.0164521751775919
0.1831095202070137,330.53896364390494,-45.54170435466404,318.5409757063727,-53.85696969342308,318.5409757063727,-53.85696969342308,0.0,0.0,65.36161865262457,22.87667712084356,253.17935705374813,-76.73364681426665,318.5409757063727,-53.85696969342308,11.997987937532208,8.31526533875904,0.0,0.0,101.33728970525159,-56.41498852800039,83.03524411720531,-22.04965772867167,68.80682323129123,1.7309994424054196,65.36161865262457,22.87667712084356,11,9.448374190168545e-16,636.6911750770483,1.6733363549314385e-15,636.6911750770483,2.220446049250313e-13,3.469446951953614e-18,0.0,1.3161740142073626,0.0
0.1859706064602483,329.97708309863555,-45.8791805969018,316.2266604545014,-55.25680244305741,273.5251303758465,-27.921929497432927,42.70153007865491,-27.334872945624483,62.16246283230068,21.79389274923887,254.06419762220068,-77.05069519229622,316.2266604545014,-55.25680244305741,13.750422644134092,9.377621846155613,0.0,0.0,101.6639878798317,-56.571810638278265,83.5040746889558,-22.172802026171034,68.89613505341316,1.6939174721531103,62.16246283230068,21.79389274923887,10,1.3718912905996337e-15,595.3559788087729,1.8242600402840682e-15,595.3559788087729,1.3877787807814457e-13,0.0,0.1151652262431444,1.2997218390297707,0.1151652262431444
0.18883169271348288,330.6695139036109,-46.22068013788086,315.05646746034387,-56.69523236877231,277.9987085976654,-32.67517230835628,37.05775886267844,-24.02006006041603,59.97556270277721,20.89140430616827,255.0809047575666,-77.58663667494054,315.05646746034387,-56.69523236877231,15.613046443267017,10.474552230891451,0.0,0.0,102.29963711387506,-56.93056854559901,83.96443387812504,-22.293932342723487,68.81683376556653,1.6378642133819312,59.97556270277721,20.89140430616827,10,1.093414521002901e-15,558.1954108445607,9.855149219694928e-16,558.1954108445607,1.1102230246251565e-13,0.0,0.09871305106555228,1.2832696638521786,0.09871305106555228
0.19169277896671746,332.46012620558554,-46.29587371396078,314.87380899903366,-57.89833456290813,283.60934200863244,-37.381162427773575,31.264466990401218,-20.517172135134558,58.74626918607757,20.207141149451452,256.1275398129561,-78.1054757123596,314.87380899903366,-57.89833456290813,17.58631720655186,11.60246084894735,0.0,0.0,102.92447839661253,-57.28257809045341,84.41899951347476,-22.414080985591944,68.78406190286879,1.5911833636857793,58.74626918607757,20.207141149451452,10,1.30170599889849e-15,524.4340807203929,1.3908407225628923e-15,524.4340807203929,1.1102230246251565e-13,0.0,0.08226087588796038,1.2668174886745867,0.08226087588796038
0.19455386521995208,336.37546248028906,-45.83603952452526,316.7042706169227,-58.594060912338705,291.3846593290656,-41.77325285995528,25.31961128785713,-16.820808052383427,59.326687869946426,19.993744471591647,257.3775827469763,-78.58780538393037,316.7042706169227,-58.594060912338705,19.67119186336635,12.758021387813445,0.0,0.0,103.53789389744743,-57.627497358070926,84.87399240594942,-22.534821547150038,68.96569644357946,1.574513521290605,59.326687869946426,19.993744471591647,10,1.0065506320991303e-15,493.6721987536887,1.4350404103601833e-15,493.6721987536887,1.1102230246251565e-13,0.0,0.06580870071036804,1.2503653134969945,0.06580870071036804
0.19741495147318666,338.8344094975532,-45.87753015271862,316.9652938662291,-59.81567169968238,297.7435829425146,-46.889836171187085,19.22171092371451,-12.925835528495298,58.08652247254916,19.215464557419594,258.8787713936799,-79.03113625710199,316.9652938662291,-59.81567169968238,21.86911563132413,13.938141546963763,0.0,0.0,104.14000553257796,-57.96543852117133,85.33484870091837,-22.657362895496554,69.4039171601836,1.5916651595658848,58.08652247254916,19.215464557419594,10,1.2603210836542202e-15,465.4415001780141,1.4451747744777274e-15,465.4415001780141,5.551115123125783e-14,0.0,0.04935652553277614,1.2339131383194024,0.04935652553277614
0.20027603772642125,343.0987175948969,-45.47572597279719,318.9167065235257,-60.615654279609004,305.9470193523687,-51.788355262822165,12.969687171156977,-8.827299016786839,58.234781946333065,18.812964935556735,260.6819245771926,-79.4286192151657,318.9167065235257,-60.615654279609004,24.182011071371242,15.139928306811811,0.0,0.0,104.73109392661503,-58.29668667025088,85.80911889525667,-22.782756470391355,70.1417117553209,1.6508239254765158,58.234781946333065,18.812964935556735,10,1.0603560145435367e-15,439.47243332285575,1.5633976120336035e-15,439.47243332285575,1.1102230246251565e-13,0.0,0.03290435035518402,1.2174609631418103,0.03290435035518402
0.20313712397965583,346.0743151579691,-45.44262140301035,319.4620481601408,-61.803275225476796,312.8993521420316,-57.28295833637708,6.562696018109193,-4.520316889099718,56.87614464713925,18.007216430342346,262.58590351300154,-79.8104916558191,319.4620481601408,-61.803275225476796,26.61226699782832,16.360653822466443,0.0,0.0,105.31238340367665,-58.62195386879608,86.29597406203001,-22.910502953430303,70.97754604729488,1.7219651664072657,56.87614464713925,18.007216430342346,10,9.349868966721023e-16,415.5893665792942,1.595732178291019e-15,415.5893665792942,2.220446049250313e-13,0.0,0.01645217517759212,1.2010087879642184,0.01645217517759212
0.20599821023289042,342.8331951775936,-49.13662456763971,331.591739073941,-56.911434075924916,331.591739073941,-56.911434075924916,0.0,0.0,66.84485481608085,23.23906616989639,264.7468842578602,-80.15050024582129,331.591739073941,-56.911434075924916,11.241456103652567,7.774809508285206,0.0,0.0,105.88797689011932,-58.943158470438064,86.78373823741751,-23.037780958152986,72.07516913032336,1.8304391827697586,66.84485481608085,23.23906616989639,11,1.10846995479962e-15,644.0730063318921,1.1994652450721908e-15,644.0730063318921,2.220446049250313e-13,6.938893903907228e-18,0.0,1.3161740142073626,0.0
0.208859296486125,342.04667632086677,-49.538420369846584,329.1477625422495,-58.31400596264314,284.58501583252956,-29.78819392962734,44.56274670971993,-28.525812033015796,63.56139532532706,22.14159324060548,265.58636721692244,-80.45559920324862,329.1477625422495,-58.31400596264314,12.898913778617285,8.775585592796553,0.0,0.0,106.1835430921221,-59.079804001367734,87.26431375484147,-23.163366124744876,72.13851036995888,1.787570922863992,63.56139532532706,22.14159324060548,10,1.0965318259107178e-15,602.3213775472392,1.7606809043660462e-15,602.3213775472392,1.1102230246251565e-13,0.0,0.1151652262431444,1.2997218390297707,0.1151652262431444
0.2117203827393596,342.6319885968948,-49.93865371575262,327.9630399486137,-59.75238763014005,289.30112356871484,-34.692869904261926,38.661916379898855,-25.059517725878123,61.36829875595383,21.247542094595993,266.59474119265985,-80.99992972473598,327.9630399486137,-59.75238763014005,14.668948648281091,9.813733914387425,0.0,0.0,106.82026286098107,-59.44017039264088,87.73477256823958,-23.28717046500786,72.0397057634392,1.7274111329127422,61.36829875595383,21.247542094595993,10,9.571197372984467e-16,564.7941576508458,1.019253250847893e-15,564.7941576508458,2.220446049250313e-13,0.0,0.09871305106555206,1.2832696638521783,0.09871305106555206
0.2145814689925942,344.3424387091764,-50.05978239597564,327.7891028445842,-60.946170839278466,295.1813950654512,-39.54769587647718,32.607707779132966,-21.398474962801288,60.15594983851166,20.57713286355171,267.6331530060725,-81.5233037028302,327.7891028445842,-60.946170839278466,16.553335864592217,10.886388443302826,0.0,0.0,107.44105720886097,-59.79107522216954,88.19825677176928,-23.410203693787032,71.99383902544226,1.6779752131263947,60.15594983851166,20.57713286355171,10,1.1102313354367858e-15,530.7063089263487,9.20942192467691e-16,530.7063089263487,2.220446049250313e-13,0.0,0.08226087588796016,1.2668174886745864,0.08226087588796016
0.21744255524582878,348.1447134601565,-49.650020010940835,329.59041334339577,-61.640883346533144,303.1917911185263,-44.10334776901351,26.398622224869484,-17.537535577519634,60.71870094407086,20.366098651881998,268.8717123993249,-82.00698199841511,329.59041334339577,-61.640883346533144,18.554300116760736,11.990863335592312,0.0,0.0,108.04563651703207,-60.13228341592279,88.66119646086838,-23.533947420744838,72.16487942142444,1.6592488382525303,60.71870094407086,20.366098651881998,10,1.3516364113116549e-15,499.64125174167305,1.5522058542326442e-15,499.64125174167305,1.1102230246251565e-13,0.0,0.06580870071036804,1.2503653134969945,0.06580870071036804
0.22030364149906337,350.58070362766256,-49.70982336590932,329.90619869969265,-62.83444356919679,309.87248237915964,-49.362610604041066,20.033716320533017,-13.471832965155727,59.5497242072809,19.613982304517968,270.35647449241173,-82.44842587371475,329.90619869969265,-62.83444356919679,20.67450492796992,13.12462020328747,0.0,0.0,108.63431716668092,-60.46395908426892,89.12866248429556,-23.659438656357757,72.59349484143527,1.6749718669119318,59.5497242072809,19.613982304517968,10,9.387388925974365e-16,471.123919271892,1.3693715434615133e-15,471.123919271892,1.1102230246251565e-13,0.0,0.04935652553277614,1.2339131383194024,0.04935652553277614
0.22316472775229795,354.76976641836166,-49.33518887802274,331.8527245356798,-63.620424937705934,318.34025918752013,-54.423718899916395,13.512465348159651,-9.19670603778954,59.71478961203442,19.220134144857568,272.13793492364533,-82.8405590825635,331.8527245356798,-63.620424937705934,22.917041882681865,14.285236059683193,0.0,0.0,109.20748960731021,-60.78640983562482,89.60832587310217,-23.78762626694712,73.32211944323295,1.7334770200084506,59.71478961203442,19.220134144857568,10,8.746157976176525e-16,444.87921238958137,1.2454359555434856e-15,444.87921238958137,2.220446049250313e-13,0.0,0.03290435035518402,1.2174609631418103,0.03290435035518402
0.22602581400553254,358.7911510742851,-49.05278090046235,333.50573129760664,-64.52315284881237,326.6711263540092,-59.81554959485783,6.834604943597469,-4.707603253954545,59.348391462691595,18.66866065052765,274.15733983491504,-83.19181349934004,333.50573129760664,-64.52315284881237,25.28541977667847,15.470371948350023,0.0,0.0,109.76735574082966,-61.10073696311757,90.09692273762701,-23.917383692249835,74.29306135645838,1.8263071560273545,59.348391462691595,18.66866065052765,10,1.0329909245577443e-15,420.7282637368411,1.0768349434750931e-15,420.7282637368411,1.1102230246251565e-13,0.0,0.01645217517759212,1.2010087879642184,0.01645217517759212
0.22888690025876712,354.5625327810317,-52.86832884080512,344.233277738202,-59.98424188190117,344.233277738202,-59.98424188190117,0.0,0.0,68.11330177233701,23.560992918041606,276.1199759658651,-83.5452347999428,344.233277738202,-59.98424188190117,10.32925504282966,7.115913041096051,0.0,0.0,110.32068838710822,-61.409984023008874,90.57937366607756,-24.04466766012107,75.21991391267926,1.9094168831871627,68.11330177233701,23.560992918041606,11,1.8454379604345967e-15,660.8761445446432,1.5750606903804042e-15,660.8761445446432,1.1102230246251565e-13,3.469446951953614e-18,0.0,1.3161740142073626,0.0
0.23174798651200174,357.7714570824454,-52.47965721801537,345.8692362600966,-60.5426274494657,299.41239246473657,-30.80398955758332,46.456843795360044,-29.738637891882377,67.7679950758131,23.158966420738025,278.1012411842835,-83.70159387020367,345.8692362600966,-60.5426274494657,11.90222082234882,8.06297023145033,0.0,0.0,110.63491277058554,-61.561218703715255,91.04804253121446,-24.168297201974497,76.4182858824835,2.0279220354860428,67.7679950758131,23.158966420738025,10,1.3894652630294165e-15,617.9389446774796,1.6115706162189334e-15,617.9389446774796,1.1102230246251565e-13,0.0,0.11516522624314418,1.2997218390297705,0.11516522624314418
0.23460907276523632,356.53242236220194,-53.28141924016077,342.94020794681535,-62.332811831540965,302.66285924806516,-36.226021866618765,40.27734869875019,-26.1067899649222,64.14577802570653,21.930371474858468,278.79442992110876,-84.2631833063994,342.94020794681535,-62.332811831540965,13.592214415386584,9.051392591380191,0.0,0.0,111.23461058617237,-61.899356730788256,91.50151657306331,-24.28846140282556,76.05830276187305,1.9246348272144331,64.14577802570653,21.930371474858468,10,1.3643754834781514e-15,579.2946298067953,1.0526216307404138e-15,579.2946298067953,1.1102230246251565e-13,0.0,0.09871305106555206,1.2832696638521783,0.09871305106555206
0.2374701590184709,357.00531618008046,-53.64215864423291,341.60318088968995,-63.721014687641855,307.65648478721505,-41.44374750661942,33.9466961024749,-22.277267181022438,62.14204845818754,21.087677921610577,279.46113243150245,-84.80869260925242,341.60318088968995,-63.721014687641855,15.402135290390483,10.078856043408951,0.0,0.0,111.82024852902515,-62.228946035903014,91.9445826485994,-24.40649334267313,75.69630125387789,1.8267467693237265,62.14204845818754,21.087677921610577,10,1.2535947819572342e-15,544.143919218248,1.3502581000335216e-15,544.143919218248,2.220446049250313e-13,0.0,0.08226087588796016,1.2668174886745864,0.08226087588796016
0.2403312452717055,360.00557942759156,-53.36625773459988,342.67029152673547,-64.50939582106909,315.20663475283413,-46.26428156157439,27.463656773901334,-18.2451142594947,62.33200854481774,20.8003201133738,280.3382829819177,-85.30971593444285,342.67029152673547,-64.50939582106909,17.33528790085606,11.143138086469216,0.0,0.0,112.39104281603261,-62.54957273004825,92.38430434739932,-24.524045629483723,75.5629358184858,1.7639024250890856,62.33200854481774,20.8003201133738,10,1.0681830856365857e-15,512.0840999335045,9.940678040116845e-16,512.0840999335045,1.1102230246251565e-13,0.0,0.06580870071036804,1.2503653134969945,0.06580870071036804
0.24319233152494008,362.07349455239,-53.46405061636915,342.6781231833034,-65.70613833996865,321.8505381574766,-51.700449918104226,20.827585025826806,-14.00568842186442,61.1035512010432,20.043614168271738,281.57457198226024,-85.74975250824039,342.6781231833034,-65.70613833996865,19.395371369086632,12.242087723599495,0.0,0.0,112.94675301286777,-62.86118394965055,92.82516933390659,-24.64210835624877,75.80264963548589,1.7535397976589238,61.1035512010432,20.043614168271738,10,1.4081640541976457e-15,482.6300318024451,1.4930485815083178e-15,482.6300318024451,1.1102230246251565e-13,0.0,0.04935652553277614,1.2339131383194024,0.04935652553277614
0.24605341777817466,366.057269031995,-53.09694823152634,344.4708000028242,-66.47054426483632,330.43254893412245,-56.915981381689846,14.038251068701754,-9.554562883146474,61.27104751585448,19.654454953284485,283.1997524869697,-86.12499921812079,344.4708000028242,-66.47054426483632,21.58646902917079,13.37359603330998,0.0,0.0,113.48708593526212,-63.163789545634295,93.27568338281168,-24.761725985655012,76.43698316889598,1.8005163131684796,61.27104751585448,19.654454953284485,10,9.20808584078579e-16,455.50493780195154,1.3014983306807442e-15,455.50493780195154,1.1102230246251565e-13,0.0,0.03290435035518402,1.2174609631418103,0.03290435035518402
0.24891450403140927,368.9831537577804,-53.04131008488842,345.0701159667845,-67.57687746821216,337.9744429601365,-62.68945316702707,7.095673006647985,-4.887424301185092,60.05998965578257,18.89005002438911,285.0101263110019,-86.46692749260126,345.0701159667845,-67.57687746821216,23.9130377909959,14.535567383323741,0.0,0.0,114.01306400397111,-63.45795360805911,93.73312924718142,-24.88201327540945,77.26393305984938,1.8730393908672696,60.05998965578257,18.89005002438911,10,9.310146366034997e-16,430.5311410823965,9.980422270177941e-16,430.5311410823965,2.220446049250313e-13,0.0,0.0164521751775919,1.2010087879642182,0.0164521751775919
0.25177559028464386,366.0102944735984,-56.43547052022477,356.6849040046785,-62.82459402823031,356.6849040046785,-62.82459402823031,0.0,0.0,69.61672814946303,23.939832609785753,287.0681758552155,-86.76442663801606,356.6849040046785,-62.82459402823031,9.32539046891985,6.389123508005536,0.0,0.0,114.52962100958086,-63.74587061224904,94.18429759767864,-24.99962136938651,78.35425724795594,1.9810653436195125,69.61672814946303,23.939832609785753,11,1.4041656282300786e-15,687.8233513740744,1.1107195724122981e-15,687.8233513740744,1.1102230246251565e-13,0.0,0.0,1.3161740142073626,0.0
0.2546366765378784,365.36185562319076,-56.792123510284284,354.53823312566993,-64.0818982243465,306.4054039424437,-33.271102256927406,48.13282918322625,-30.810795967419097,66.6057681106912,22.921778231148437,287.93246501497873,-87.00367645549495,354.53823312566993,-64.0818982243465,10.82362249752085,7.289774714062216,0.0,0.0,114.75998103482193,-63.84549152978225,94.6227751409801,-25.11370676176894,78.54970883917674,1.9555218360562066,66.6057681106912,22.921778231148437,10,1.0908627036309927e-15,642.8562196964272,1.6347008035951338e-15,642.8562196964272,2.220446049250313e-13,0.0,0.1151652262431444,1.2997218390297707,0.1151652262431444
0.257497762791113,365.8679796532388,-57.18694414243268,353.42317931353693,-65.42352863359554,311.71188131915204,-38.38770922613023,41.71129799438489,-27.03581940746531,64.48791554580681,22.0641267680289,288.93526376773013,-87.48765540162441,353.42317931353693,-65.42352863359554,12.444800339701862,8.236584491162857,0.0,0.0,115.33061473973763,-64.16862373949833,95.04779926654835,-25.224696745981348,78.55684976144417,1.9056650838552542,64.48791554580681,22.0641267680289,10,9.937954266121885e-16,602.2700752004525,1.1690939562551458e-15,602.2700752004525,8.326672684688674e-14,0.0,0.09871305106555206,1.2832696638521786,0.09871305106555206
0.26035884904434764,367.4307707721201,-57.30776484205546,353.2379735890758,-66.53539041616193,318.1003829574753,-43.47684157465838,35.13759063160052,-23.05854884150355,63.301489998339036,21.41679744594517,289.93648359073677,-87.95218786210711,353.2379735890758,-66.53539041616193,14.192797183044302,9.227625574106467,0.0,0.0,115.87976212015198,-64.47903989902716,95.46350409462781,-25.333870285272937,78.59321737595701,1.8607223221929772,63.301489998339036,21.41679744594517,10,1.3518503067313276e-15,565.2456732225642,1.3967100107646014e-15,565.2456732225642,1.1102230246251565e-13,0.0,0.08226087588795994,1.2668174886745864,0.08226087588795994
0.2632199352975822,371.0170941177807,-56.90441309164801,354.94524184545884,-67.16541654295901,326.53359412200984,-48.29063236218724,28.411647723448993,-18.87478418077177,63.84353311455685,21.212566703979924,291.10170873090203,-88.37798324693895,354.94524184545884,-67.16541654295901,16.071852272321863,10.261003451311002,0.0,0.0,116.40736469616132,-64.77668500346486,95.8752972076012,-25.442537456942958,78.81904682713952,1.841239213468853,63.84353311455685,21.212566703979924,10,9.212941924337223e-16,531.428518373666,1.6217821919918948e-15,531.428518373666,1.1102230246251565e-13,0.0,0.06580870071036804,1.2503653134969945,0.06580870071036804
0.2660810215508168,373.2974641141353,-56.93958252506119,355.2109035765235,-68.27441105163322,333.6769413364074,-53.79376004880828,21.533962240116068,-14.480651002824942,62.72965956069035,20.48554647696441,292.4812440158331,-88.75995752859762,355.2109035765235,-68.27441105163322,18.086560537611813,11.334828526572032,0.0,0.0,116.91381662290712,-65.06183546531688,96.28613386812516,-25.551304941449636,79.28129352480082,1.8531828781688944,62.72965956069035,20.48554647696441,10,1.0954040793251507e-15,500.32016696282784,1.3225956633148904e-15,500.32016696282784,1.1102230246251565e-13,0.0,0.04935652553277592,1.2339131383194024,0.04935652553277592
0.26894210780405137,377.28921460321374,-56.53798978969802,357.04735272313116,-68.98517863965864,342.5419521585875,-59.11268291304495,14.505400564543663,-9.872495726613693,62.91613188509368,20.103583786820344,294.1312208380375,-89.08876242647901,357.04735272313116,-68.98517863965864,20.24186188008261,12.447188849960623,0.0,0.0,117.39935185599634,-65.33478726643983,96.70515211976418,-25.661182013218863,80.02671686227691,1.9072068531796944,62.91613188509368,20.103583786820344,10,1.219493897903624e-15,471.64769696115945,1.2225941160291681e-15,471.64769696115945,1.6653345369377348e-13,0.0,0.03290435035518402,1.2174609631418105,0.03290435035518402
0.271803194057286,379.50808552929584,-56.60103415544731,356.96505547132796,-70.197157578396,349.63802501403217,-65.15037834052828,7.327030457295791,-5.0467792378677245,61.168342249660036,19.205377575933817,295.7967132216679,-89.40253515432981,356.96505547132796,-70.197157578396,22.54303005796789,13.59612342294869,0.0,0.0,117.86553731092954,-65.59639583510085,97.13143452957631,-25.771535215571383,80.79974138116202,1.9653958963424714,61.168342249660036,19.205377575933817,10,1.0143949845369692e-15,445.2403320314295,1.0966495783515657e-15,445.2403320314295,1.1102230246251565e-13,0.0,0.0164521751775919,1.2010087879642184,0.0164521751775919
0.2746642803105206,376.26625992574054,-59.92055951562419,367.98413814892666,-65.55690537738468,367.9841381489268,-65.55690537738474,-1.1368683772161603e-13,5.684341886080802e-14,70.3601628183329,24.119351992937275,297.6239753305938,-89.67625737032195,367.98413814892666,-65.55690537738468,8.282121776813883,5.63634586176049,0.0,0.0,118.31797203641923,-65.84919667479225,97.5531230571616,-25.879310241638315,81.75288023701296,2.0522495461086123,70.3601628183329,24.119351992937275,11,1.7184568412583384e-15,726.0674784851022,1.7707015930185672e-15,726.0674784851022,2.220446049250313e-13,0.0,-2.220446049250313e-16,1.3161740142073626,0.0
0.27752536656375515,376.97984575870646,-59.93324748688906,367.2664118221535,-66.42970264982895,317.58036846564903,-34.624811117989935,49.686043356504456,-31.80489153183902,68.56664664902124,23.401280708472385,298.6997651731322,-89.8309833583013,367.2664118221535,-66.42970264982895,9.713433936552988,6.4964551629398954,0.0,0.0,118.49314008966508,-65.91984121042654,97.96451811440069,-25.984000022380975,82.24210696906651,2.072857874506191,68.56664664902124,23.401280708472385,10,1.3474205396719986e-15,678.0987746170031,1.2542054018613587e-15,678.0987746170031,1.1102230246251565e-13,0.0,0.1151652262431444,1.2997218390297707,0.1151652262431444
0.28038645281698976,376.8881971509931,-60.38313578255244,365.6134767863135,-67.79123519107006,322.5928720206604,-39.90687322955765,43.020604765653104,-27.88436196151241,66.17502141247456,22.487695327606538,299.438455373839,-90.27893051867662,365.6134767863135,-67.79123519107006,11.274720364679602,7.4080994085176135,0.0,0.0,118.98764232490586,-66.2004566200305,98.36367553523974,-26.086022284036567,82.0871375136934,2.007548385390457,66.17502141247456,22.487695327606538,10,1.075721405227499e-15,634.6257116746161,1.1834125935095197e-15,634.6257116746161,1.1102230246251565e-13,0.0,0.09871305106555206,1.2832696638521786,0.09871305106555206
0.2832475390702243,377.9165061359021,-60.528580570922784,364.9457879609068,-68.89822019963614,328.7364214911916,-45.136401086568725,36.20936646971518,-23.761819113067418,64.81742286148997,21.80939308229776,300.1283650994168,-90.70761328193386,364.9457879609068,-68.89822019963614,12.970718174995323,8.369639628713355,0.0,0.0,119.45899219218427,-66.46737515734335,98.75188717808516,-26.186228200781606,81.91748572914739,1.9459900761910944,64.81742286148997,21.80939308229776,10,9.704966663114776e-16,594.7978444395619,1.3398559315520156e-15,594.7978444395619,2.220446049250313e-13,0.0,0.08226087588796038,1.2668174886745867,0.08226087588796038
0.28610862532345893,379.7605501512132,-60.492450175166915,364.9540552302502,-69.8718580954048,335.70121477769646,-50.43828042311296,29.252840452553755,-19.433577672291847,64.0126786849467,21.22568251114285,300.94137654530357,-91.0975406065477,364.9540552302502,-69.8718580954048,14.806494920962937,9.379407920237888,0.0,0.0,119.90722302363423,-66.72060227884222,99.13225200984137,-26.28542673510367,81.90190151182793,1.9084884073982096,64.0126786849467,21.22568251114285,10,1.163227155857917e-15,558.3460622739649,1.909325562852203e-15,558.3460622739649,1.1102230246251565e-13,0.0,0.06580870071036804,1.2503653134969945,0.06580870071036804
0.2889697115766935,383.5275453793604,-59.973295051964975,366.74010816427466,-70.40897628323108,344.58799964414334,-55.512666604296584,22.15210852013132,-14.8963096789345,64.6875508760922,21.01769936496646,302.05255728818236,-91.42667564819752,366.74010816427466,-70.40897628323108,16.787437215085724,10.43568123126611,0.0,0.0,120.33263204187723,-66.96039161803327,99.50738233328124,-26.384018300846442,82.21254291302391,1.917734270682189,64.6875508760922,21.01769936496646,10,1.3628093217395762e-15,524.7564031598025,1.0686969948795734e-15,524.7564031598025,1.1102230246251565e-13,0.0,0.04935652553277636,1.2339131383194029,0.04935652553277636
0.2918307978299281,385.83066545866126,-59.895572809249046,366.91142672908137,-71.43222847316139,352.00280724415006,-61.28530434442192,14.908619484931307,-10.146924128739471,63.53993020556715,20.278692001455838,303.3714965235142,-91.71092047461721,366.91142672908137,-71.43222847316139,18.919238729579888,11.536655663912343,0.0,0.0,120.73520730430985,-67.18693807277711,99.8836958014058,-26.482661753148918,82.75259341779858,1.9586793513087812,63.53993020556715,20.278692001455838,10,1.155207206827732e-15,493.7695218273832,1.379398553468415e-15,493.7695218273832,1.1102230246251565e-13,0.0,0.03290435035518402,1.2174609631418105,0.03290435035518402
0.2946918840831627,389.83001970005785,-59.400271922364524,368.6221321863136,-72.0806932407634,361.09812075633096,-66.89823641487766,7.524011429982636,-5.182456825885737,63.595426365187734,19.848058056067146,305.0267058211258,-91.92875129683051,368.6221321863136,-72.0806932407634,21.207887513744282,12.680421318398873,0.0,0.0,121.11656319290802,-67.4011000513603,100.25928834281169,-26.580528134967494,83.65085428540611,2.0528768894972984,63.595426365187734,19.848058056067146,10,1.1961815466169885e-15,465.22964672075415,9.90385464744588e-16,465.22964672075415,1.1102230246251565e-13,0.0,0.0164521751775919,1.2010087879642184,0.0164521751775919
0.29755297033639727,387.38965816340794,-62.413105494939394,380.1491914694212,-67.30340244612958,380.1491914694212,-67.30340244612958,0.0,0.0,73.22766662234544,24.792647811269404,306.9215248470757,-92.09605025739896,380.1491914694212,-67.30340244612958,7.240466693986722,4.890296951190185,0.0,0.0,121.48304675775039,-67.60570810139814,100.62064408337764,-26.674085706414928,84.81783400594769,2.1837435504140927,73.22766662234544,24.792647811269404,11,1.0738719110617978e-15,777.2173650505331,1.3621044773408696e-15,777.2173650505331,1.1102230246251565e-13,3.469446951953614e-18,0.0,1.3161740142073626,0.0
0.3004140565896319,389.1914985242916,-62.133722492101406,380.5810589870906,-67.84777614956892,329.631733056083,-35.23451825137147,50.94932593100759,-32.613257898197446,72.21685262541962,24.25207115109287,308.36420636167094,-92.09984730066174,380.5810589870906,-67.84777614956892,8.610439537201014,5.714053657467509,0.0,0.0,121.56601280290909,-67.62405033979236,100.96142103921227,-26.76267275097414,85.83677251954964,2.286875790104716,72.21685262541962,24.25207115109287,10,1.008989386698808e-15,725.0872633301232,1.1289019852894663e-15,725.0872633301232,2.220446049250313e-13,0.0,0.11516522624314418,1.2997218390297705,0.11516522624314418
0.30327514284286644,390.76485999177316,-62.22668755098902,380.64648904860394,-68.82191622765632,336.57197062605655,-40.25463340690399,44.074518422547385,-28.567282820752325,70.64688295972448,23.514216838661348,309.9996060888794,-92.3361330663176,380.64648904860394,-68.82191622765632,10.11837094316923,6.595228676667294,0.0,0.0,121.97380151035262,-67.85596938728237,101.28115838912176,-26.846806598542898,86.74464618940503,2.3666429195076475,70.64688295972448,23.514216838661348,10,1.5532008080750026e-15,677.6133966531,1.3595249927094261e-15,677.6133966531,2.220446049250313e-13,0.0,0.09871305106555228,1.2832696638521786,0.09871305106555228
0.30613622909610105,389.06197242743355,-62.84547821619879,377.29219071019463,-70.37786558750611,340.2299367289032,-46.05646771212918,37.062253981291406,-24.32139787537693,67.41796266979972,22.41269700283963,309.87422804039494,-92.79056259034571,377.29219071019463,-70.37786558750611,11.769781717238915,7.532387371307317,0.0,0.0,122.35696244780328,-68.07325347882625,101.58494113840662,-26.927805381097002,85.93232445418501,2.21049626957754,67.41796266979972,22.41269700283963,10,1.1698016517139337e-15,633.8870414995359,1.7361388225902116e-15,633.8870414995359,2.220446049250313e-13,0.0,0.08226087588796016,1.2668174886745864,0.08226087588796016
0.3089973153493356,389.15788353487665,-63.040293979699854,375.5873967910855,-71.56430223633393,345.67350367720985,-51.691629819190354,29.913893113875645,-19.872672417143576,65.71083276025226,21.635688856778508,309.87656403083326,-93.19999109311244,375.5873967910855,-71.56430223633393,13.570486743791173,8.524008256634072,0.0,0.0,122.71568777604176,-68.27606009213036,101.87888842973605,-27.006927309579183,85.28198782505541,2.082996308597153,65.71083276025226,21.635688856778508,10,1.0256771099385634e-15,593.7598906304496,1.3754881999531998e-15,593.7598906304496,8.326672684688674e-14,0.0,0.06580870071036826,1.2503653134969945,0.06580870071036826
0.3118584016025702,390.52572924398976,-62.960575227163794,374.9991478641255,-72.52903308666066,352.3678474434036,-57.31051685743421,22.631300420721914,-15.218516229226452,64.75647895615694,21.004374627348156,310.24266890796855,-93.53340771400875,374.9991478641255,-72.52903308666066,15.526581379864211,9.568457859496867,0.0,0.0,123.05013452242774,-68.46464203608649,102.16550307846612,-27.084575172662277,85.02703130707471,2.0158094947399903,64.75647895615694,21.004374627348156,10,9.903685559216144e-16,556.705334960614,1.341408573906236e-15,556.705334960614,1.1102230246251565e-13,0.0,0.04935652553277614,1.2339131383194024,0.04935652553277614
0.31471948785580484,394.176214767347,-62.34780416281696,376.5317878334977,-73.01177027870878,361.31517299901316,-62.65523123400223,15.216614834484517,-10.356539044706551,65.34967990084752,20.75211928635421,311.1821079326502,-93.76388956506301,376.5317878334977,-73.01177027870878,17.644426933849335,10.663966115891817,0.0,0.0,123.35992399768368,-68.63905698513483,102.45379064514232,-27.161638423885172,85.36839328982416,2.0368058439569907,65.34967990084752,20.75211928635421,10,1.2543130933796486e-15,522.4957590958384,1.539432882741938e-15,522.4957590958384,1.1102230246251565e-13,0.0,0.03290435035518402,1.2174609631418103,0.03290435035518402
0.3175805741090394,398.2118112134682,-61.71194518443589,378.28117604312257,-73.5205475432796,370.60908967057406,-68.23609953780692,7.672086372548506,-5.284448005472683,65.66299925934001,20.384298669022442,312.6181767837825,-93.904846212302,378.28117604312257,-73.5205475432796,19.930635170345653,11.808602358843713,0.0,0.0,123.64658900702983,-68.80010752233078,102.74139566944743,-27.23713989823326,86.23019210730524,2.132401208261996,65.66299925934001,20.384298669022442,10,1.0381609587297017e-15,491.00168230294736,1.2856829456649773e-15,491.00168230294736,1.1102230246251565e-13,0.0,0.01645217517759212,1.2010087879642184,0.01645217517759212
0.320441660362274,393.5430745233374,-65.1074525347845,387.3102176493006,-69.28344376861946,387.3102176493006,-69.28344376861946,0.0,0.0,73.31807916164453,24.759018960838794,313.9921384876561,-94.04246272945828,387.3102176493006,-69.28344376861946,6.2328568740367585,4.175991233834968,0.0,0.0,123.91720906138896,-68.95089783803499,103.01485790558209,-27.307404874076425,87.06007152068506,2.2158399826531507,73.31807916164453,24.759018960838794,11,9.134953817813035e-16,843.3381205604813,1.0366726682328798e-15,843.3381205604813,1.1102230246251565e-13,3.469446951953614e-18,0.0,1.3161740142073626,0.0
0.32330274661550856,396.5026587850999,-64.4585029547647,388.95751064967396,-69.42461844111571,337.08298429520323,-36.21970529744348,51.87452635447073,-33.20491314367223,73.37583629591751,24.48815303710287,315.58167435375645,-93.91277147821854,388.95751064967396,-69.42461844111571,7.545148135425967,4.966115486351011,0.0,0.0,123.89344056109876,-68.90834452760846,103.27025962897312,-27.372371370024176,88.41797416368455,2.3679444194141297,73.37583629591751,24.48815303710287,10,8.67899673780321e-16,785.6283256369042,1.6892293814213214e-15,785.6283256369042,1.1102230246251565e-13,0.0,0.1151652262431444,1.2997218390297707,0.1151652262431444
0.3261638328687432,394.70553584710115,-65.10518815071998,385.7012048667319,-70.92525533715897,340.8673324967174,-41.86614586979283,44.83387237001455,-29.05910946736614,69.80278330850729,23.307064247123108,315.8984215582247,-94.23231958428212,385.7012048667319,-70.92525533715897,9.004330980369229,5.820067186438984,0.0,0.0,124.2068189781962,-69.08755854938447,103.50806196165307,-27.43299569602747,88.18354061837545,2.288234661129799,69.80278330850729,23.307064247123108,10,8.304104074613656e-16,732.8269656083489,1.1851052105584133e-15,732.8269656083489,9.020562075079397e-14,0.0,0.09871305106555206,1.2832696638521786,0.09871305106555206
0.32902491912197773,394.3237045689842,-65.34887793598918,383.70706081120335,-72.08542083585934,346.0416805032563,-47.36843552650541,37.66538030794703,-24.71698530935393,67.65580667695858,22.461706624820906,316.0512541342448,-94.54712746068026,383.70706081120335,-72.08542083585934,10.616643757780881,6.736542899870158,0.0,0.0,124.492610194764,-69.25034583539396,103.73128043102943,-27.49041157848383,87.82736350845141,2.1936299531974797,67.65580667695858,22.461706624820906,10,1.0715627938890394e-15,683.8987168017283,1.1218575397179902e-15,683.8987168017283,2.220446049250313e-13,0.0,0.08226087588796038,1.2668174886745867,0.08226087588796038
0.33188600537521235,395.19901557488816,-65.29581877939617,382.8104386367817,-73.00991374543563,352.4389571147578,-52.83335502159139,30.37148152202394,-20.176558723844238,66.48533106472887,21.810501789010893,316.3251075720529,-94.82041553444654,382.8104386367817,-73.00991374543563,12.388576938106462,7.714094966039447,0.0,0.0,124.75135715913197,-69.39711764123716,103.94278714503642,-27.545281996100186,87.63096326788451,2.1219841028907993,66.48533106472887,21.810501789010893,10,9.51557101208744e-16,638.8390053561252,1.2143051552713132e-15,638.8390053561252,1.1102230246251565e-13,0.0,0.06580870071036804,1.2503653134969945,0.06580870071036804
0.33474709162844696,396.99447875024214,-65.03968909258218,382.66762273773514,-73.79079621342271,359.71261899670867,-58.35464761420627,22.955003741026474,-15.436148599216438,65.76574508321147,21.237097965668376,316.90187765452373,-95.02789417909113,382.66762273773514,-73.79079621342271,14.326856012506987,8.751107120840528,0.0,0.0,124.9833590758449,-69.52826639165009,104.14344263008081,-27.5976038308957,87.77507594859803,2.097976043454672,65.76574508321147,21.237097965668376,10,9.356927941468068e-16,597.1292984251652,9.644188502088298e-16,597.1292984251652,2.220446049250313e-13,0.0,0.04935652553277592,1.2339131383194024,0.04935652553277592
0.3376081778816815,400.75194120898595,-64.29734009146175,384.3135179934243,-74.14311087740518,368.8945853259248,-63.648885662247295,15.418932667499462,-10.494225215157883,66.45139679001417,21.0131967370153,317.86212120341014,-95.15630761442051,384.3135179934243,-74.14311087740518,16.43842321556164,9.84577078594343,0.0,0.0,125.18820331750265,-69.64388196307029,104.34604597184065,-27.648751163419277,88.32787191406683,2.136325512069064,66.45139679001417,21.0131967370153,10,1.1104054201305175e-15,558.6061115236109,1.0099197005179218e-15,558.6061115236109,2.220446049250313e-13,0.0,0.03290435035518402,1.2174609631418105,0.03290435035518402
0.3404692641349161,402.7682042283912,-64.02253278327404,384.0377861967789,-75.01859489066811,376.2715147618654,-69.66927485874771,7.766271434913506,-5.349320031920399,65.09577472083379,20.228181946854555,318.94201147594504,-95.2467768375226,384.0377861967789,-75.01859489066811,18.73041803161234,10.996062107394073,0.0,0.0,125.36667379767856,-69.74447827570651,104.55358203620052,-27.698933210266617,89.021755642066,2.196634648450498,65.09577472083379,20.228181946854555,10,1.5598638731866265e-15,523.1795176072296,1.3455895871129185e-15,523.1795176072296,1.1102230246251565e-13,0.0,0.0164521751775919,1.2010087879642184,0.0164521751775919
0.3433303503881507,400.2656189225907,-66.78207485042847,394.9797424242729,-70.29473152131533,394.9797424242729,-70.29473152131533,0.0,0.0,74.53111633549528,24.9577779500817,320.44862608877764,-95.25250947139705,394.9797424242729,-70.29473152131533,5.285876498317803,3.5126566708868503,0.0,0.0,125.52394380707503,-69.83236190620734,104.757405783493,-27.746146821291376,90.1672764982096,2.3259992561016816,74.53111633549528,24.9577779500817,11,1.0631793710963437e-15,926.8701488801214,2.0428914041450003e-15,926.8701488801214,1.6653345369377348e-13,0.0,0.0,1.3161740142073626,0.0
0.3461914366413853,401.9288042799126,-66.26463671582869,395.38594239344815,-70.53547091100933,342.9669590690434,-36.98293621499394,52.418983324404735,-33.552534696015385,73.86990315146218,24.52940401041799,321.516039241986,-95.06487492142736,395.38594239344815,-70.53547091100933,6.54286188646446,4.2708341951806394,0.0,0.0,125.36198185027713,-69.71134374104902,104.95341769900381,-27.79069155007636,91.20063969270504,2.4371603696980486,73.86990315146218,24.52940401041799,10,1.3304852067760321e-15,861.8297770148032,1.8048645261796384e-15,861.8297770148032,1.1102230246251565e-13,0.0,0.1151652262431444,1.2997218390297705,0.1151652262431444
0.3490525228946199,404.447986447958,-65.95151787584817,396.4912773727104,-71.05136370619556,351.23133589564674,-41.71663955784109,45.25994147706365,-29.334724148354468,73.21280331581673,24.017083803062853,323.27847405689363,-95.06844750925839,396.4912773727104,-71.05136370619556,7.956709075247625,5.099845830347395,0.0,0.0,125.5597604043123,-69.82749638513306,105.1374857123498,-27.832917701664257,92.58122794023157,2.5919665775389262,73.21280331581673,24.017083803062853,10,1.4157527184768114e-15,802.1403054859795,1.1516801653439473e-15,802.1403054859795,2.220446049250313e-13,0.0,0.09871305106555206,1.2832696638521783,0.09871305106555206
0.35191360914785447,401.6229384145351,-66.56161405386501,392.0886334223512,-72.56005794113125,354.10346057802093,-47.63352221039557,37.98517284433029,-24.92653573073568,69.5165314571042,22.820447948567384,322.57210196524704,-95.38050588969864,392.0886334223512,-72.56005794113125,9.534304992183861,5.998443887266235,0.0,0.0,125.7251562192151,-69.924544138508,105.30595410477994,-27.8727167514525,91.54099164125199,2.416755000261844,69.5165314571042,22.820447948567384,10,1.1179601891192e-15,746.4689928776063,1.2872411275036877e-15,746.4689928776063,2.220446049250313e-13,0.0,0.08226087588796038,1.2668174886745864,0.08226087588796038
0.3547746954010891,400.6735750279753,-66.69540226156488,389.3908389263711,-73.66057925790221,358.7928029707042,-53.33366711764353,30.598035955666887,-20.326912140258685,67.5126926830905,21.992643458966313,321.87814624328064,-95.65322271686856,389.3908389263711,-73.66057925790221,11.28273610160422,6.965176996337337,0.0,0.0,125.85946477813931,-70.00327091238253,105.45834627831178,-27.90987848387762,90.56033518682953,2.259926679391583,67.5126926830905,21.992643458966313,10,9.896588194062084e-16,694.952475164543,1.5048864154086754e-15,694.952475164543,1.1102230246251565e-13,0.0,0.06580870071036804,1.2503653134969943,0.06580870071036804
0.35763578165432364,401.23293595884064,-66.4835076171476,388.0236692730011,-74.48187416673272,364.9214573674974,-58.94679785166977,23.10221190550368,-15.535076315062952,66.4548209682565,21.356772614370485,321.5688483047446,-95.8386467811032,388.0236692730011,-74.48187416673272,13.209266685839582,7.998366549585129,0.0,0.0,125.96350277680611,-70.0643378514495,105.59696885013447,-27.944419063436577,90.00837667780402,2.1701101337828703,66.4548209682565,21.356772614370485,10,1.18769602120252e-15,647.1497173352883,1.2783396773108507e-15,647.1497173352883,2.220446049250313e-13,0.0,0.04935652553277636,1.2339131383194024,0.04935652553277636
0.36049686790755825,402.856089829224,-66.04863213058302,387.53477404951644,-75.14471619314023,372.0333095588776,-64.59433743259626,15.501464490638853,-10.550378760543964,65.74543251880401,20.77812347470963,321.7893415307125,-95.92283966784987,387.53477404951644,-75.14471619314023,15.321315779707538,9.096084062557216,0.0,0.0,126.03734691102464,-70.10808493726657,105.73220954828919,-27.977538977586526,90.01978507139862,2.162784247003252,65.74543251880401,20.77812347470963,10,1.2332139818377385e-15,603.0096073507434,1.2139685645728507e-15,603.0096073507434,2.220446049250313e-13,0.0,0.03290435035518402,1.2174609631418103,0.03290435035518402
0.3633579541607928,406.5946156149738,-65.12339026097949,388.9681828639991,-75.3795198298873,381.1686718169768,-70.00730694100241,7.799511047022293,-5.372212888884889,66.36573306966187,20.517875501198603,322.6024497943372,-95.89739533108585,388.9681828639991,-75.3795198298873,17.626432750974658,10.25612956890781,0.0,0.0,126.08302600883212,-70.13558903040298,105.8646393538158,-28.009038888566522,90.6547844316893,2.2472325878836443,66.36573306966187,20.517875501198603,10,1.072897793092735e-15,562.4902681854205,1.3588934250686266e-15,562.4902681854205,2.220446049250313e-13,0.0,0.016452175177592343,1.2010087879642184,0.016452175177592343
0.3662190404140274,408.42045965645246,-64.68170706006416,388.2881881280508,-76.15771822542291,388.2881881280508,-76.15771822542291,0.0,0.0,64.80167935563048,19.686755754929997,323.4865087724203,-95.84447398035283,388.2881881280508,-76.15771822542291,20.13227152840165,11.47601116535875,0.0,0.0,126.10822382700155,-70.15027336117868,105.98054502688473,-28.03564515813133,91.39773991853406,2.341444538957134,64.80167935563048,19.686755754929997,10,8.095587755134778e-16,525.438026436746,1.7466986093354577e-15,525.438026436746,1.1102230246251565e-13,0.0,0.0,1.1845566127866263,0.0
0.36908012666726203,405.18552236574965,-67.22006454516297,399.55998949945104,-70.86263592464095,346.95730003408266,-37.192695323565715,52.60268946536837,-33.66994060107524,74.80930122494576,24.643256897284665,324.75068827450525,-95.50589282192558,399.55998949945104,-70.86263592464095,5.625532866298619,3.642571379477988,0.0,0.0,125.8455492102502,-69.97610399904497,106.07331298019939,-28.057047509246047,92.83182608405568,2.5272586863654283,74.80930122494576,24.643256897284665,10,1.1474205922276072e-15,905.0815951863117,1.4528179395365698e-15,905.0815951863117,1.1102230246251565e-13,0.0,0.11516522624314418,1.2997218390297705,0.11516522624314418
0.3719412129204966,407.40665678421396,-66.77092437989742,400.40951258769235,-71.21946406506416,355.0491532784527,-41.81980404765682,45.36035930923964,-29.399660017407342,74.109356891026,24.172854990540166,326.3001556966663,-95.3923190556043,400.40951258769235,-71.21946406506416,6.997144196521601,4.448539685166735,0.0,0.0,125.90353599726134,-70.01291018633628,106.14148411080426,-28.073696526305,94.2551355886007,2.6942876570369947,74.109356891026,24.172854990540166,10,1.386665353305704e-15,842.5722651919724,1.6978140654514678e-15,842.5722651919724,1.1102230246251565e-13,0.0,0.09871305106555228,1.2832696638521786,0.09871305106555228
0.3748022991737312,404.8254848781786,-67.17503998190209,396.281274750234,-72.50679525939557,358.2601358984216,-47.556765817629014,38.021138851812395,-24.95002944176656,70.61490377431863,23.05240899404408,325.66637097591536,-95.55920425343967,396.281274750234,-72.50679525939557,8.544210127944632,5.331755277493481,0.0,0.0,125.93367964870475,-70.03307209159142,106.18900326371516,-28.086479902686378,93.54368806349542,2.5603477408381536,70.61490377431863,23.05240899404408,10,1.573938573903226e-15,785.2053857336185,1.0153569457204153e-15,785.2053857336185,1.1102230246251565e-13,0.0,0.08226087588796016,1.2668174886745864,0.08226087588796016
0.37766338542696576,403.00730449006545,-67.34032226653946,392.73299609636695,-73.63099182167497,362.144354284965,-53.31038704265674,30.588641811401942,-20.320604779018225,68.21389651836742,22.132955119368667,324.5190995779995,-95.7639469410436,392.73299609636695,-73.63099182167497,10.274308393698483,6.290669555135501,0.0,0.0,125.93656270929097,-70.0371356932842,106.22073229570071,-28.09606182199083,92.36180457300783,2.3692505742314154,68.21389651836742,22.132955119368667,10,1.9441372166151676e-15,732.5947019363159,1.4123215672219044e-15,732.5947019363159,1.1102230246251565e-13,0.0,0.06580870071036826,1.2503653134969945,0.06580870071036826
0.38052447168020037,402.9704908661573,-67.09578826414715,390.77536961408504,-74.41923312669343,367.7087505210136,-58.90812401970675,23.066619093071438,-15.51110910698668,66.98221800994688,21.45803057247759,323.7931516041382,-95.87726369917104,390.77536961408504,-74.41923312669343,12.195121252072273,7.323444862546277,0.0,0.0,125.91194775600684,-70.02530056767122,106.2377067434087,-28.10232926300197,91.64349710472266,2.2503661315021546,66.98221800994688,21.45803057247759,10,1.128329317916791e-15,682.6300974463893,1.3944116885921625e-15,682.6300974463893,1.1102230246251565e-13,0.0,0.04935652553277614,1.2339131383194024,0.04935652553277614
0.38338555793343493,404.1491106261936,-66.58369998343484,389.83470361091213,-75.01163355127773,374.37593234539264,-64.49032306589626,15.458771265519488,-10.521310485381463,66.2153973765581,20.871779500763218,323.61930623435404,-95.88341305204094,389.83470361091213,-75.01163355127773,14.31440701528146,8.42793356784288,0.0,0.0,125.85886501253174,-69.99738770118623,106.25418101381166,-28.10676992071712,91.50626020801066,2.22074456986239,66.2153973765581,20.871779500763218,10,1.3770409982765596e-15,635.678834925426,1.2497507934884446e-15,635.678834925426,1.3877787807814457e-13,0.0,0.03290435035518424,1.2174609631418105,0.03290435035518424
0.38624664418666954,406.0476611709283,-65.92002864357525,389.40769092231926,-75.52168722208796,381.6389816636367,-70.1706917787289,7.768709258682577,-5.350995443359068,65.49054269666776,20.276593605288284,323.91714822565143,-95.79828082737617,389.40769092231926,-75.52168722208796,16.639970248609018,9.601658578512705,0.0,0.0,125.77912361540179,-69.95427568744415,106.27156105262037,-28.109148124639248,91.8664635576293,2.2651429847072393,65.49054269666776,20.276593605288284,10,1.5263376925014806e-15,592.1849059285469,2.113284611425287e-15,592.1849059285469,2.220446049250313e-13,0.0,0.01645217517759212,1.2010087879642184,0.01645217517759212
0.38910773043990415,409.9958203837112,-64.80247259583396,390.81618969564124,-75.64426802764609,390.81618969564124,-75.64426802764609,0.0,0.0,65.93673630040836,19.95264938793536,324.87945339523293,-95.59691741558149,390.81618969564124,-75.64426802764609,19.179630688069928,10.841795431812127,0.0,0.0,125.68163382781788,-69.89981585591627,106.2781941975735,-28.106324517157503,92.91962536984157,2.4092229574922897,65.93673630040836,19.95264938793536,10,1.107115693961202e-15,552.2194974052254,1.0983602359394749e-15,552.2194974052254,2.220446049250313e-13,0.0,0.0,1.1845566127866263,0.0
0.3919688166931387,411.4358525131277,-64.02287797786002,389.49466157743507,-76.1680340746384,337.1962705832069,-42.693691324819554,52.29839099422816,-33.474342749818845,64.07764774021966,19.0556015457898,325.4170138372154,-95.22363562042821,389.49466157743507,-76.1680340746384,21.94119093569265,12.145156096778374,0.0,0.0,125.29054947627664,-69.65244398907726,106.2713648643855,-28.099094435784032,93.85509949655328,2.527902804433083,64.07764774021966,19.0556015457898,9,1.178950462104535e-15,515.6399033780953,1.1604013130603485e-15,515.6399033780953,1.1102230246251565e-13,0.0,0.1151652262431444,1.1681044376090344,0.1151652262431444
0.3948299029463733,407.10266551939276,-67.03866260731353,400.9572511610399,-70.91630648335214,355.90570430466227,-41.717299994377754,45.05154685637763,-29.19900648897439,74.06951507440516,24.07649763428317,326.8877360866347,-94.99280411763527,400.9572511610399,-70.91630648335214,6.145414358352838,3.877643876038622,0.0,0.0,125.23554638051658,-69.62597392871027,106.24692730440137,-28.087989466217152,95.40526240171673,2.7211592772921307,74.06951507440516,24.07649763428317,10,2.142468145982588e-15,901.4286907785706,1.1251526785501053e-15,901.4286907785706,2.220446049250313e-13,0.0,0.09871305106555206,1.2832696638521786,0.09871305106555206
0.3976909891996079,403.8716277974291,-67.38730060396678,396.20470531832683,-72.13557979588063,358.48194072141297,-47.38162962349011,37.72276459691386,-24.753950172390518,70.46774621012293,22.962857721350332,325.7369591082039,-95.09843751723099,396.20470531832683,-72.13557979588063,7.666922479102242,4.748279191913853,0.0,0.0,125.15202544005078,-69.58231968201176,106.20044686835658,-28.072631426955105,94.38448679979655,2.5565135917358788,70.46774621012293,22.962857721350332,10,1.0903724913074338e-15,838.247838626053,1.2938077241738004e-15,838.247838626053,2.220446049250313e-13,0.0,0.08226087588796038,1.2668174886745867,0.08226087588796038
0.4005520754528425,402.2787876216795,-67.31815959662326,392.89408056922923,-73.02086906589668,362.5776210505035,-52.881220277149424,30.316459518725708,-20.13964878874725,68.42559088471057,22.16510050059847,324.4684896845186,-95.18596956649509,392.89408056922923,-73.02086906589668,9.384707052450256,5.702709469273414,0.0,0.0,125.04077278629234,-69.52222753963332,106.13186618867488,-28.0526038748565,93.2958507095514,2.3888618479947183,68.42559088471057,22.16510050059847,10,1.0293039080063782e-15,779.9624635649327,1.042209113008178e-15,779.9624635649327,2.220446049250313e-13,0.0,0.06580870071036804,1.2503653134969945,0.06580870071036804
0.4034131617060771,402.131449029321,-66.94166599141266,390.82474706854623,-73.68048220194069,367.98778140836,-58.3238605865385,22.83696566018625,-15.35662161540219,67.27237437344283,21.50988143497834,323.5523726951034,-95.19036363691899,390.82474706854623,-73.68048220194069,11.306701960774765,6.738816210528035,0.0,0.0,124.90151574179995,-69.44594485583278,106.04430414993715,-28.027962417723835,92.60655280336627,2.2835436366376456,67.27237437344283,21.50988143497834,10,8.902795680873263e-16,726.0694791045013,2.2386784096359026e-15,726.0694791045013,1.1102230246251565e-13,0.0,0.04935652553277592,1.2339131383194024,0.04935652553277592
0.40627424795931166,403.1321852453725,-66.31224501440815,389.691366005857,-74.166354090346,374.4029436551894,-63.76100032338189,15.288422350667588,-10.405353766964112,66.51646648092796,20.92357978526853,323.17489952492895,-95.08993387561446,389.691366005857,-74.166354090346,13.440819239515518,7.854109075937857,0.0,0.0,124.73317801947881,-69.35327795965576,105.95499388276397,-28.000964055422415,92.48672762268617,2.2643081394636937,66.51646648092796,20.92357978526853,10,1.0640489256493388e-15,675.1742686959567,1.063582194874506e-15,675.1742686959567,1.1102230246251565e-13,0.0,0.03290435035518402,1.2174609631418105,0.03290435035518402
0.4091353342125463,404.7909103309307,-65.53150846273466,388.9959961952137,-74.57721822959991,381.32119326197994,-69.29090634157859,7.674802933233764,-5.2863118880213165,65.78338255310815,20.328072435914905,323.2126136421055,-94.90529066551477,388.9959961952137,-74.57721822959991,15.794914135717036,9.045709766865238,0.0,0.0,124.53651833176073,-69.24469416275662,105.86953001596761,-27.97275749609034,92.80656529437715,2.3121609933322134,65.78338255310815,20.328072435914905,10,1.000069648007903e-15,627.6579393238413,2.1876357800801776e-15,627.6579393238413,3.3306690738754696e-13,0.0,0.0164521751775919,1.2010087879642184,0.0164521751775919
0.41199642046578083,406.804784153987,-64.66651649799809,388.4280349792442,-74.97685448876555,388.4280349792442,-74.97685448876555,0.0,0.0,64.88075495989222,19.680177747850124,323.547280019352,-94.65703223661566,388.4280349792442,-74.97685448876555,18.376749174742773,10.310337990767469,0.0,0.0,124.31767377851585,-69.12290052775266,105.77873606310733,-27.94176047427034,93.45087017772885,2.40762876540731,64.88075495989222,19.680177747850124,10,9.328224111353067e-16,583.8307793371094,1.2832284242231925e-15,583.8307793371094,2.220446049250313e-13,0.0,0.0,1.1845566127866265,0.0
0.41485750671901545,410.50595414895326,-63.17326977844181,389.31199680144243,-74.81756942189483,337.76076647751427,-41.82284615317741,51.551230323928166,-32.99472326871742,65.01077018973754,19.26457775013168,324.3012266117049,-94.08214717202654,389.31199680144243,-74.81756942189483,21.193957347510807,11.644299643453024,0.0,0.0,123.76575658287955,-68.78302150865055,105.67635303623435,-27.90817589415176,94.85911699259101,2.609050230775793,65.01077018973754,19.26457775013168,9,1.0809492115921235e-15,543.6779012098307,1.1433768164664167e-15,543.6779012098307,2.220446049250313e-13,0.0,0.11516522624314418,1.1681044376090344,0.11516522624314418
0.41771859297225,412.91754052720194,-62.32439032447168,388.66353598590854,-75.36786766200566,344.299903222442,-46.6155582909131,44.36363276346651,-28.752309371092565,63.32084029957176,18.411606547506082,325.3426956863367,-93.77947420951168,388.66353598590854,-75.36786766200566,24.254004541293384,13.043477337533988,0.0,0.0,123.59401128143398,-68.69349779423132,105.55524910882136,-27.8716358925042,96.1934352960814,2.785659477223845,63.32084029957176,18.411606547506082,9,9.49631070731916e-16,507.0170714928232,1.3527058382512295e-15,507.0170714928232,2.220446049250313e-13,0.0,0.09871305106555228,1.1516522624314425,0.09871305106555228
0.4205796792254846,407.99068752975626,-65.47273982262709,401.06882593216835,-69.7309416576847,363.9595596246841,-45.38004390160981,37.10926630748423,-24.350897756074886,73.90693635384063,23.633426184202683,327.16188957832776,-93.36436784188737,401.06882593216835,-69.7309416576847,6.921861597587903,4.2582018350576005,0.0,0.0,123.3899379572121,-68.58474771469312,105.41131536848798,-27.831396711359787,98.3606362526277,3.051776584165509,73.90693635384063,23.633426184202683,10,1.394786443383792e-15,895.7506250358234,1.7699273958523889e-15,895.7506250358234,2.220446049250313e-13,0.0,0.08226087588796016,1.2668174886745864,0.08226087588796016
0.4234407654787192,402.7348056891635,-65.94120967780938,394.09964565127166,-71.15361412181801,364.3066079154294,-51.36191382999661,29.793037735842233,-19.7917002918214,69.79814713182654,22.38971255773776,324.30149851944515,-93.54332667955575,394.09964565127166,-71.15361412181801,8.635160037891875,5.212404444008622,0.0,0.0,123.15507720595389,-68.45787807064215,105.24657452764134,-27.787185455010032,95.89984678584992,2.7017368460964093,69.79814713182654,22.38971255773776,10,1.3143450417436996e-15,831.8881094428895,1.0380049746016406e-15,831.8881094428895,2.220446049250313e-13,0.0,0.06580870071036804,1.2503653134969943,0.06580870071036804
0.4263018517319538,400.1657810165443,-65.79582612412442,389.59881212429576,-72.05226965618169,367.17914536145474,-56.97635319896705,22.41966676284102,-15.075916457214646,67.73496920915808,21.56280241388412,321.86384291513764,-93.61507207006579,389.59881212429576,-72.05226965618169,10.56696889224856,6.256443532057279,0.0,0.0,122.8898478433784,-68.31346455719164,105.06454329043798,-27.73912579486555,93.90945178132127,2.4375182819913874,67.73496920915808,21.56280241388412,10,9.702796300616066e-16,772.2009983617841,1.5772554292301821e-15,772.2009983617841,2.220446049250313e-13,0.0,0.04935652553277614,1.2339131383194024,0.04935652553277614
0.4291629379851884,399.6168000995118,-65.23530677209025,386.89169151541364,-72.62264170738385,371.8981007987764,-62.41797824813361,14.993590716637243,-10.204663459250241,66.6076201497379,20.90396910930089,320.28407136567574,-93.52661081668472,386.89169151541364,-72.62264170738385,12.725108584098152,7.387334935293601,0.0,0.0,122.5940518294478,-68.15172351189948,104.88179202806161,-27.689366809040102,92.80822750816633,2.314479504254834,66.6076201497379,20.90396910930089,10,1.544531580720863e-15,716.5993199134526,1.0289367266518322e-15,716.5993199134526,2.220446049250313e-13,0.0,0.03290435035518402,1.2174609631418103,0.03290435035518402
0.43202402423842295,400.48863626235595,-64.39780067573652,385.3714148321581,-72.99945118580575,377.8524021224005,-67.82044895463787,7.51901270975759,-5.179002231167885,65.77833904725671,20.290386602970088,319.59307578490143,-93.28983778877586,385.3714148321581,-72.99945118580575,15.117221430197853,8.60165051006924,0.0,0.0,122.27055984886344,-67.97405860307677,104.70056721719943,-27.638295876166538,92.62194871883855,2.322516690467438,65.77833904725671,20.290386602970088,10,1.195546036396751e-15,664.6929052202527,1.9747205391213803e-15,664.6929052202527,2.220446049250313e-13,0.0,0.01645217517759212,1.2010087879642184,0.01645217517759212
0.43488511049165757,402.1097265966724,-63.41602455932271,384.35899436287275,-73.31153424294428,384.35899436287275,-73.31153424294428,0.0,0.0,64.86571338230124,19.643951275924593,319.4932809805715,-92.95548551886887,384.35899436287275,-73.31153424294428,17.750732233799646,9.895509683621567,0.0,0.0,121.92946080362691,-67.78492762105944,104.50825822218734,-27.58304722124877,93.05556195475727,2.412489323439317,64.86571338230124,19.643951275924593,10,1.015530877212213e-15,616.6888674144589,9.074499086406635e-16,616.6888674144589,2.220446049250313e-13,0.0,0.0,1.1845566127866263,0.0
0.4377461967448921,405.7405411195009,-61.803741668346014,385.1077325409682,-73.06831540076053,334.6021090341744,-40.74303822264625,50.50562350679377,-32.32527717811428,65.04088818463003,19.24371489349962,320.06684435633815,-92.31203029426015,385.1077325409682,-73.06831540076053,20.632808578532742,11.26457373241451,0.0,0.0,121.31240057482827,-67.41409452857339,104.30003114894758,-27.524075072926692,94.45441263256232,2.62613930723991,65.04088818463003,19.24371489349962,9,1.1073780791901258e-15,572.6618941388446,1.5215445522706971e-15,572.6618941388446,1.6653345369377348e-13,0.0,0.1151652262431444,1.1681044376090344,0.1151652262431444
0.44060728299812674,408.06683150084905,-60.79575910394691,384.2965105071259,-73.49980199156357,340.8900544495665,-45.368018536345886,43.40645605755941,-28.131783455217686,63.35157744919961,18.39594144863456,320.9449330579263,-91.89574344019812,384.2965105071259,-73.49980199156357,23.770320993723125,12.70404288761667,0.0,0.0,121.01064030180783,-67.25004034221206,104.07059606575964,-27.461298038978796,95.86369669035881,2.815594940992753,63.35157744919961,18.39594144863456,9,9.16436519735155e-16,532.4840267241207,1.0806126683927333e-15,532.4840267241207,2.220446049250313e-13,0.0,0.09871305106555206,1.1516522624314423,0.09871305106555206
0.44346836925136135,400.0874156294267,-64.4420623705618,393.76065652665454,-68.31223876969207,357.4985840173118,-44.517387591009566,36.262072509342715,-23.794851178682507,72.43014894041173,23.235694012500545,321.3305075862428,-91.54793278219259,393.76065652665454,-68.31223876969207,6.326759102772133,3.8701763991302776,0.0,0.0,120.68558332056477,-67.07178878629938,103.8175798350414,-27.394105244462168,96.82734443063666,2.9179612485689574,72.43014894041173,23.235694012500545,10,9.702179347225854e-16,907.2326444321466,1.2822562981541406e-15,907.2326444321466,2.220446049250313e-13,0.0,0.08226087588795994,1.2668174886745864,0.08226087588795994
0.4463294555045959,396.30417369025196,-64.42693188966496,388.2580532416559,-69.25682301649661,359.18128052100786,-49.941015203022715,29.076772720648023,-19.315807813473896,69.3739465491453,22.299062433329837,318.8841066925106,-91.55588544982646,388.2580532416559,-69.25682301649661,8.046120448596096,4.829891126831658,0.0,0.0,120.3373313574302,-66.87983292051788,103.54309796555123,-27.322141966687354,95.00367736952917,2.646089437378805,69.3739465491453,22.299062433329837,10,1.5968122354890036e-15,842.8081712354693,1.6054807573611824e-15,842.8081712354693,2.220446049250313e-13,0.0,0.06580870071036804,1.2503653134969945,0.06580870071036804
0.4491905417578305,394.2407060850226,-64.01382851183884,384.2418382863426,-69.90160998232864,362.3873857378448,-55.20580181107613,21.854452548497818,-14.695808171252509,67.71917114313189,21.605718203291453,316.52266714321075,-91.50732818562011,384.2418382863426,-69.90160998232864,9.998867798679994,5.887781470489792,0.0,0.0,119.96483687748618,-66.67403851592441,103.24901920222462,-27.245309651298847,93.30881106349995,2.4120199816031374,67.71917114313189,21.605718203291453,10,1.5021103751505405e-15,784.1278204492365,2.1887239631356604e-15,784.1278204492365,2.220446049250313e-13,0.0,0.04935652553277592,1.2339131383194024,0.04935652553277592
0.4520516280110651,393.6046128796113,-63.359042137405936,381.4121939647343,-70.39923450658748,366.813533614951,-60.46337259827442,14.598660349783302,-9.935861908313058,66.59481813942286,20.926984005868043,314.81737582531144,-91.32621851245554,381.4121939647343,-70.39923450658748,12.192418914877006,7.040192369181537,0.0,0.0,119.56673926318462,-66.45401056144699,102.95884388391457,-27.166756305517595,92.29179267821226,2.294548354509047,66.59481813942286,20.926984005868043,10,1.2489643748249761e-15,730.740338307586,1.0660867419401373e-15,730.740338307586,2.220446049250313e-13,0.0,0.03290435035518402,1.2174609631418105,0.03290435035518402
0.4549127142642997,394.28509159929536,-62.433440874475885,379.65121374532055,-70.71641696542468,372.33846506641476,-65.67948833865518,7.312748678905791,-5.036928626769509,65.7348626714717,20.292417205056722,313.9163510738489,-91.00883417048144,379.65121374532055,-70.71641696542468,14.633877853974822,8.2829760909488,0.0,0.0,119.14478017627133,-66.22057113002634,102.68184895150735,-27.088358840424746,92.0897219460702,2.300095799969668,65.7348626714717,20.292417205056722,10,8.993495608526793e-16,679.3325328260894,1.1559514439092743e-15,679.3325328260894,2.220446049250313e-13,0.0,0.0164521751775919,1.2010087879642184,0.0164521751775919
0.45777380051753425,395.7296440348508,-61.34861181440804,378.39964957633157,-70.96010311183221,378.39964957633157,-70.96010311183221,0.0,0.0,64.81031460673364,19.63894348072374,313.5893349695979,-90.59904659255598,378.39964957633157,-70.96010311183221,17.32999445851924,9.611491297424172,0.0,0.0,118.70761062714395,-65.97748641016854,102.4117399698862,-27.009006752736845,92.4699843725678,2.387446570349411,64.81031460673364,19.63894348072374,10,1.15070670114553e-15,630.7642756787861,1.465772502876193e-15,630.7642756787861,2.220446049250313e-13,0.0,0.0,1.1845566127866265,0.0
0.46063488677076886,397.29080124073676,-60.00051397085742,377.00367690147846,-71.02111923819498,327.9867850220986,-39.64987192870166,49.01689187937984,-31.371247309493327,63.63530781010345,18.921725898959913,313.36836909137503,-89.9428451371549,377.00367690147846,-71.02111923819498,20.28712433925829,11.020605267337567,0.0,0.0,117.97233424332742,-65.53827925857938,102.14255590819114,-26.929351274333136,93.25347893985642,2.5247853957576325,63.63530781010345,18.921725898959913,9,1.3556545472899792e-15,585.7685324602098,9.83722067647141e-16,585.7685324602098,2.220446049250313e-13,0.0,0.1151652262431444,1.1681044376090344,0.1151652262431444
0.46349597302400347,401.4689378175481,-58.46724370742767,377.95774826542134,-70.97194303160595,335.8651863336154,-43.69240516548953,42.09256193180596,-27.279537866116414,63.3768398334974,18.406435890869183,314.58090843192394,-89.3783789224751,377.95774826542134,-70.97194303160595,23.51118955212678,12.504699324178278,0.0,0.0,117.58943572872614,-65.33029289962607,101.85745769055097,-26.847498057544,95.13401501264687,2.7994120346949387,63.3768398334974,18.406435890869183,9,1.2501311414013547e-15,544.4828152764126,9.067084935327355e-16,544.4828152764126,1.6653345369377348e-13,0.0,0.09871305106555206,1.1516522624314423,0.09871305106555206
0.46635705927723803,403.5931132255214,-57.36256706451502,376.5854730502154,-71.4202445588082,341.44993536347033,-48.36500209595667,35.13553768674507,-23.055242462851538,61.14643413852148,17.442651587281865,315.43903891169384,-88.86289614609001,376.5854730502154,-71.4202445588082,27.00764017530601,14.057677494293188,0.0,0.0,117.18174814366462,-65.1072814190148,101.54149771358729,-26.760527462780075,96.71579305444197,3.0049127357048064,61.14643413852148,17.442651587281865,9,9.337381912412356e-16,506.766499678981,1.6965877850128557e-15,506.766499678981,2.220446049250313e-13,0.0,0.08226087588796038,1.1352000872538504,0.08226087588796038
0.46921814553047264,391.9507443419106,-61.61980577457652,384.31386232329726,-66.18431932280836,356.16359315660253,-47.48417701394516,28.150269166694727,-18.700142308863207,70.38018856985029,22.46701051436854,313.933673753447,-88.65132983717689,384.31386232329726,-66.18431932280836,7.636882018613336,4.564513548231844,0.0,0.0,116.74980043615773,-64.86996259625514,101.19659656605353,-26.667769310727465,95.98727675123573,2.886402069805726,70.38018856985029,22.46701051436854,10,9.500207288811231e-16,895.4502916185546,1.536544226558336e-15,895.4502916185546,1.1102230246251565e-13,0.0,0.06580870071036804,1.2503653134969943,0.06580870071036804
0.4720792317837072,387.71520562875565,-61.46441719172468,378.09049551324415,-67.10824448032844,356.9498115934094,-52.89247611239614,21.14068391983477,-14.215768367932299,67.79429619937427,21.556329176511078,310.2961993138699,-88.66457365683956,378.09049551324415,-67.10824448032844,9.624710115511512,5.643827288603756,0.0,0.0,116.29300345266682,-64.6184293170507,100.83334180457678,-26.57063647246312,93.16985405662633,2.524492132674226,67.79429619937427,21.556329176511078,10,9.273066562552003e-16,830.7477278142667,1.4806264815896245e-15,830.7477278142667,1.1102230246251565e-13,0.0,0.04935652553277636,1.2339131383194024,0.04935652553277636
0.4749403180369418,385.92454693801034,-60.81855704585932,374.05696753311855,-67.64357924216333,359.9466748686492,-58.040120999373755,14.110292664469341,-9.603458242789571,66.42751295079472,20.855448791328904,307.6294545823238,-88.4990280334922,374.05696753311855,-67.64357924216333,11.867579404891782,6.825022196304001,0.0,0.0,115.81063261781638,-64.35259652603676,100.47408742114605,-26.47281709133413,91.34473454336138,2.326385583878661,66.42751295079472,20.855448791328904,10,1.1165820080033545e-15,770.2803146537882,1.2105702112263344e-15,770.2803146537882,2.220446049250313e-13,0.0,0.03290435035518402,1.2174609631418103,0.03290435035518402
0.4778014042901764,385.8037766607177,-59.86222551881575,371.43210036987114,-67.96527555389031,364.3697450660024,-63.10081703824298,7.062355303868742,-4.864458515647328,65.45257969836636,20.201358001424673,305.9795206715048,-88.166633555315,371.43210036987114,-67.96527555389031,14.371676290846542,8.103050035074558,0.0,0.0,115.30509763145999,-64.07363007575705,100.12652780752958,-26.376244861396025,90.54789523251524,2.2832413818380886,65.45257969836636,20.201358001424673,10,1.3106346267569095e-15,713.7623273020014,2.3527810444045443e-15,713.7623273020014,2.220446049250313e-13,0.0,0.0164521751775919,1.2010087879642182,0.0164521751775919
0.480662490543411,386.86279226602556,-58.69744700736999,369.72009915207894,-68.16979050322763,369.72009915207894,-68.16979050322763,0.0,0.0,64.48135598587622,19.534677959160874,305.23874316620277,-87.70446846238856,369.72009915207894,-68.16979050322763,17.142693113946628,9.472343495857645,0.0,0.0,114.78552766429235,-63.785576992412594,99.78002577867787,-26.278944815441882,90.67318972323254,2.360053345465957,64.48135598587622,19.534677959160874,10,9.464269749173428e-16,660.899820722245,1.4469596819598135e-15,660.899820722245,2.220446049250313e-13,0.0,0.0,1.1845566127866263,0.0
0.4835235767966456,388.26637094601057,-57.250032087064945,368.08057971324854,-68.1768601498805,320.7774959491792,-37.90313467419077,47.303083764069356,-30.27372547568973,63.28036005553151,18.810574505434786,304.800219657717,-86.98743465531525,368.08057971324854,-68.1768601498805,20.18579123276202,10.926828062815552,0.0,0.0,113.98109758358653,-63.30979204750304,99.42605019760936,-26.18050474462786,91.39307187652112,2.5028621368156436,63.28036005553151,18.810574505434786,9,1.1512325372957544e-15,612.0229744808258,1.0453283124647305e-15,612.0229744808258,2.220446049250313e-13,0.0,0.1151652262431444,1.168104437609034,0.1151652262431444
0.48638466304988015,392.4057043179529,-55.59229310538382,368.9001385835354,-68.0522303666524,328.3170218121743,-41.751353303303944,40.58311677136112,-26.30087706334845,63.01508422913109,18.295685995501174,305.8850543544043,-86.34791636215363,368.9001385835354,-68.0522303666524,23.505565734417473,12.459937261268578,0.0,0.0,113.51508161809208,-63.05572234074505,99.05196000681934,-26.07927813420182,93.31801272949289,2.7870841127932238,63.01508422913109,18.295685995501174,9,1.006377403047829e-15,567.2387273467409,1.1278292567149055e-15,567.2387273467409,1.6653345369377348e-13,0.0,0.0987130510655525,1.1516522624314423,0.0987130510655525
0.48924574930311476,394.33554248409257,-54.400893580049356,367.22953050363736,-68.46552481429819,333.38432277459185,-46.25720466713966,33.84520772904551,-22.20832014715853,60.678960787081394,17.311766770745272,306.55056971655597,-85.77729158504349,367.22953050363736,-68.46552481429819,27.106011980455186,14.064631234248838,0.0,0.0,113.0283738709951,-62.789018313235815,98.64865975263811,-25.973295708348658,94.87353609292275,2.9850224365410156,60.678960787081394,17.311766770745272,9,1.1535088064345042e-15,526.421471107595,9.825960629527458e-16,526.421471107595,2.220446049250313e-13,0.0,0.08226087588796038,1.1352000872538501,0.08226087588796038
0.4921068355563493,384.14340284804666,-58.48232075652735,376.7177123824187,-62.90759111575872,349.62459920877376,-44.909830589966106,27.09311317364495,-17.997760525792614,70.56229039611718,22.447049900622282,306.1554219863016,-85.35464101638101,376.7177123824187,-62.90759111575872,7.425690465627966,4.425270359231372,0.0,0.0,112.5210381809191,-62.51016993632199,98.21933396906488,-25.862235641210702,95.41504983631764,3.017764561151651,70.56229039611718,22.447049900622282,10,1.4878228092581247e-15,901.195231780272,1.4600712533609692e-15,901.195231780272,2.220446049250313e-13,0.0,0.06580870071036848,1.2503653134969945,0.06580870071036848
0.49496792180958393,379.13874532543787,-58.310953035817526,369.6729004610632,-63.8462796396002,349.3429444036112,-50.17572153833018,20.329956057451966,-13.670558101270018,67.7116174410745,21.528232200703975,301.9612830199887,-85.37451184030414,369.6729004610632,-63.8462796396002,9.465844864374645,5.535326603782671,0.0,0.0,111.99225191068244,-62.21911277805181,97.77255448442317,-25.747184348340497,92.19647662488306,2.591785286088168,67.7116174410745,21.528232200703975,10,1.3633130219793529e-15,835.9418087030673,1.8580767482637998e-15,835.9418087030673,1.1102230246251565e-13,0.0,0.04935652553277636,1.2339131383194024,0.04935652553277636
0.49782900806281855,376.67777508593525,-57.64799382723566,364.9034649786324,-64.40187599076572,351.3450402785528,-55.17403218691217,13.558424700079627,-9.227843803853546,66.18858203386264,20.81154003135626,298.7148829447697,-85.21341602212189,364.9034649786324,-64.40187599076572,11.774310107302808,6.753882163530057,0.0,0.0,111.44144959523351,-61.915779428347776,97.33681101027513,-25.63237697046126,89.93662233926109,2.3347403766871295,66.18858203386264,20.81154003135626,10,1.0548608149552844e-15,776.0948596313823,1.260006853856919e-15,776.0948596313823,1.1102230246251565e-13,0.0,0.03290435035518402,1.2174609631418103,0.03290435035518402
0.5006900943160532,376.02074044888576,-56.68065239181635,361.66479787600196,-64.75546581577987,354.8838129779251,-60.08481316138577,6.780984898076838,-4.670652654394104,65.07182140044995,20.11351586918176,296.59297647555206,-84.86898168496167,361.66479787600196,-64.75546581577987,14.35594257288383,8.074813423963523,0.0,0.0,110.87227957840557,-61.601829877493714,96.92267953833436,-25.51992096645519,88.79801735881212,2.252769158987256,65.07182140044995,20.11351586918176,10,1.2056417640217473e-15,720.5200034520557,9.9611273670714e-16,720.5200034520557,2.220446049250313e-13,0.0,0.0164521751775919,1.2010087879642182,0.0164521751775919
0.5035511805692877,376.8242462345006,-55.45628156452278,359.6092723954607,-64.94775660278634,359.6092723954607,-64.94775660278634,0.0,0.0,64.04202957154133,19.427182576686207,295.5672428239194,-84.37493917947256,359.6092723954607,-64.94775660278634,17.214973839039864,9.491475038263559,0.0,0.0,110.29643222029063,-61.28240136252608,96.51950104635397,-25.407513895770897,88.7513095572748,2.3149760788244365,64.04202957154133,19.427182576686207,10,1.0766497293989469e-15,667.6718475125215,1.87925590726547e-15,667.6718475125215,1.1102230246251565e-13,0.0,0.0,1.1845566127866263,0.0
0.5064122668225223,378.1294045119205,-53.936190861232646,357.7744237539023,-64.9329134861392,312.3886596890086,-35.88668642952365,45.38576406489369,-29.04622705661555,62.81271330747431,18.69534542202409,294.96171044642796,-83.62825890816328,357.7744237539023,-64.9329134861392,20.354980758018193,10.996722624906553,0.0,0.0,109.45761709509136,-60.78857625860276,96.11804866125868,-25.295046093102677,89.3860446900779,2.4553634435421543,62.81271330747431,18.69534542202409,9,1.2071970473934556e-15,618.3454669722579,1.1526725499449545e-15,618.3454669722579,1.1102230246251565e-13,0.0,0.1151652262431444,1.1681044376090344,0.1151652262431444
0.5092733530757568,380.1363021933348,-52.58217405978396,356.35744411226545,-65.16511279833344,317.4487694772125,-39.949662589898594,38.90867463505293,-25.215450208434845,61.2509393999582,17.888138777307113,295.1065047123073,-83.05325157564057,356.35744411226545,-65.16511279833344,23.77885808106936,12.582938738549482,0.0,0.0,108.94331492043486,-60.50651464503474,95.6995627402693,-25.180140883802487,90.46362705160313,2.6334039531966695,61.2509393999582,17.888138777307113,9,1.2366902473363697e-15,572.9675326162939,1.3559128989260468e-15,572.9675326162939,1.1102230246251565e-13,0.0,0.0987130510655525,1.1516522624314425,0.0987130510655525
0.5121344393289915,383.1732282549767,-51.06210341380255,355.68443444689115,-65.30416538349351,323.25884728465576,-44.02751215814598,32.42558716223539,-21.27665322534753,59.7154141240603,17.088129257627074,295.96902032283083,-82.39229464112059,355.68443444689115,-65.30416538349351,27.4887938080856,14.242061969690964,0.0,0.0,108.41505125655848,-60.21557927087173,95.2486844150027,-25.059801229840986,92.3052846512696,2.883085859592171,59.7154141240603,17.088129257627074,9,1.3139176411632518e-15,531.5173492433672,9.011650502343926e-16,531.5173492433672,2.220446049250313e-13,0.0,0.08226087588795994,1.1352000872538501,0.08226087588795994
0.514995525582226,369.052162128825,-55.7817987389344,361.6219279358767,-60.20323817815009,335.682608748735,-42.97200908520162,25.939319187141734,-17.231229092948467,68.45886016531163,22.008500751784055,293.1630677705651,-82.21173892993411,361.6219279358767,-60.20323817815009,7.430234192948272,4.421439439215691,0.0,0.0,107.8718967777276,-59.9157984718653,94.76947349466363,-24.933787618952593,90.52169749817386,2.6378471608837373,68.45886016531163,22.008500751784055,10,1.100539751800218e-15,904.4746585215843,8.164223560901012e-16,904.4746585215843,2.220446049250313e-13,0.0,0.06580870071036804,1.2503653134969945,0.06580870071036804
0.5178566118354606,366.2406475285716,-55.116318306036895,356.69817069602436,-60.689343485632264,337.24618349606635,-47.609191658488754,19.451987199958012,-13.08015182714351,66.73962635986975,21.355705045592757,289.95854433615466,-82.04504853122509,356.69817069602436,-60.689343485632264,9.542476832547276,5.5730251795953665,0.0,0.0,107.31218788535446,-59.60668711716404,94.27582866871904,-24.804180740328086,88.3705277820811,2.3658193262671006,66.73962635986975,21.355705045592757,10,1.0871218031246823e-15,838.6277218123015,1.660418266915526e-15,838.6277218123015,3.3306690738754696e-13,0.0,0.04935652553277636,1.2339131383194029,0.04935652553277636
0.5207176980886953,365.2264576796721,-54.14332033680968,353.2920777983792,-60.98176301976352,340.32677087995353,-52.157602663847655,12.965306918425654,-8.824160355915865,65.7215731910634,20.752675241610632,287.5705046073158,-81.73443826137412,353.2920777983792,-60.98176301976352,11.934379881292884,6.838442682953838,0.0,0.0,106.73473418128825,-59.28785747675513,93.79559258779868,-24.675531328892745,87.04017783822883,2.228950544273779,65.7215731910634,20.752675241610632,10,1.1505075243688437e-15,778.8054683181434,1.2736014117621973e-15,778.8054683181434,1.1102230246251565e-13,0.0,0.0329043503551838,1.2174609631418103,0.0329043503551838
0.5235787843419298,365.4097058136901,-53.018448370441305,350.8006458055755,-61.22879626639522,344.3198232719712,-56.764892447167256,6.480822533604339,-4.463903819227966,64.69998175616493,20.054429087835935,286.10066404941057,-81.28322535423113,350.8006458055755,-61.22879626639522,14.609060008114547,8.210347895953918,0.0,0.0,106.14182291929598,-58.96036518586649,93.33931495763673,-24.55030400416004,86.61952617247788,2.227443835795384,64.69998175616493,20.054429087835935,10,1.3588535741388898e-15,723.7816077155754,9.893852593998476e-16,723.7816077155754,1.1102230246251565e-13,0.0,0.0164521751775919,1.2010087879642184,0.0164521751775919
0.5264398705951644,366.49000212758034,-51.71315788536556,348.9211000404888,-61.39405963320232,348.9211000404888,-61.39405963320232,0.0,0.0,63.62116848889106,19.344750614195718,285.2999315515978,-80.73881024739805,348.9211000404888,-61.39405963320232,17.56890208709156,9.680901747836755,0.0,0.0,105.54237693899043,-58.62814894595937,92.89667749503911,-24.426790662403945,86.86087711756822,2.3161293609652915,63.62116848889106,19.344750614195718,10,1.4535797659497872e-15,670.8740338938267,1.5906587059250403e-15,670.8740338938267,1.1102230246251565e-13,0.0,0.0,1.1845566127866265,0.0
0.529300956848399,367.75729845605923,-50.12161591305275,346.9417583448222,-61.363419904860365,303.6307547992767,-33.64604525486567,43.311003545545475,-27.717374649994696,62.3209366050022,18.590859402588492,284.62082173982,-79.95427930744884,346.9417583448222,-61.363419904860365,20.81554011123706,11.241803991807613,0.0,0.0,104.65188982291508,-58.103522285597066,92.45773475594552,-24.304500021748986,87.51119716095937,2.4537429998972016,62.3209366050022,18.590859402588492,9,9.329975698696516e-16,621.2017026438516,1.4904673540712453e-15,621.2017026438516,1.6653345369377348e-13,0.0,0.11516522624314462,1.1681044376090348,0.11516522624314462
