time_s,total_vertical_force_n,total_pitch_moment_nm,raw_bem_vertical_force_n,raw_bem_pitch_moment_nm,resolved_station_bem_vertical_force_n,resolved_station_bem_pitch_moment_nm,transom_extrapolation_vertical_force_n,transom_extrapolation_pitch_moment_nm,pre_chine_bem_vertical_force_n,pre_chine_bem_pitch_moment_nm,post_chine_bem_vertical_force_n,post_chine_bem_pitch_moment_nm,bem_vertical_force_n,bem_pitch_moment_nm,front_vertical_force_n,front_pitch_moment_nm,transom_vertical_force_n,transom_pitch_moment_nm,longitudinal_bin_aft_post_chine_vertical_force_n,longitudinal_bin_aft_post_chine_pitch_moment_nm,longitudinal_bin_middle_post_chine_vertical_force_n,longitudinal_bin_middle_post_chine_pitch_moment_nm,longitudinal_bin_forward_post_chine_vertical_force_n,longitudinal_bin_forward_post_chine_pitch_moment_nm,longitudinal_bin_pre_chine_vertical_force_n,longitudinal_bin_pre_chine_pitch_moment_nm,active_plane_count,potential_bvp_relative_residual,pressure_bvp_relative_residual,free_surface_pressure_max_abs_pa,contact_constraint_max_abs_m,aftmost_resolved_station_x_m,foremost_resolved_station_x_m,transom_coverage_gap_m
0.0,166.8379145507652,-2.8143591754418242,164.04683206945813,-4.67797509760139,164.04683206945813,-4.67797509760139,0.0,0.0,34.48132171667753,13.357507297895367,129.56551035278062,-18.035482395496764,164.04683206945813,-4.67797509760139,2.791082481307061,1.8636159221595656,0.0,0.0,48.94443037168858,-17.358080934942716,41.81891070134059,-4.997255610888882,38.80216927975145,4.319854150334827,34.48132171667753,13.357507297895367,11,1.4925198270057925e-15,1.3571563511552898e-15,1.1102230246251565e-13,6.938893903907228e-17,0.0,1.0985454545454545,0.0
0.0031103849223331993,173.00606806533807,-1.8315731926092833,169.2449851001906,-4.313414397617862,147.5958784290171,4.77842714932072,21.649106671173513,-9.091841546938582,36.375900860313955,13.948813971329344,132.86908423987666,-18.26222836894722,169.2449851001906,-4.313414397617862,3.761082965147455,2.4818412050085787,0.0,0.0,49.893900814280144,-17.678970703697342,43.066832003767,-5.143068770810737,39.90835142182951,4.559811105560861,36.375900860313955,13.948813971329344,10,1.0427922400659733e-15,1.4532358548143109e-15,2.220446049250313e-13,0.0,0.09612272727272742,1.0848136363636363,0.09612272727272742
0.006220769844666399,176.61041325738285,-2.1430228387850825,171.73732160210966,-5.320501612597525,152.48971210731148,2.8921632375981687,19.247609494798184,-8.212664850195694,36.01873539346097,13.745959417736259,135.7185862086487,-19.06646103033379,171.73732160210966,-5.320501612597525,4.8730916552732,3.1774787738124424,0.0,0.0,51.462294701093924,-18.235782578374106,44.57493879699913,-5.325993509669825,39.68135271055566,4.495315057710133,36.01873539346097,13.745959417736259,10,1.2655645088155121e-15,2.16700998720224e-15,2.220446049250313e-13,0.0,0.08239090909090918,1.071081818181818,0.08239090909090918
0.009331154766999597,179.53079906139553,-2.6505584099954493,173.4054309919232,-6.596632456548733,156.80304205742064,0.5993404761728272,16.602388934502557,-7.19597293272156,34.82202014316867,13.206737565286613,138.5834108487545,-19.80337002183534,173.4054309919232,-6.596632456548733,6.125368069472343,3.9460740465532833,0.0,0.0,52.92351521384103,-18.75662506270352,45.855545750348554,-5.480694551806506,39.80434988456493,4.433949592674683,34.82202014316867,13.206737565286613,10,1.2717498218729887e-15,1.3081205066596207e-15,1.1102230246251565e-13,0.0,0.06865909090909095,1.05735,0.06865909090909095
0.012441539689332797,186.31000775071314,-2.112214572170595,178.79420600365512,-6.895204986135127,165.13985360592818,-0.8846353333099586,13.654352397726939,-6.010569652825168,34.75731622188789,12.96027999192615,144.0368897817672,-19.855484978061263,178.79420600365512,-6.895204986135127,7.515801747058022,4.782990413964532,0.0,0.0,54.018074965774964,-19.148715980741404,46.78163225058473,-5.587313175571921,43.237182565407515,4.880544178252052,34.75731622188789,12.96027999192615,10,1.3267731449524026e-15,1.2833296673944792e-15,1.1102230246251565e-13,0.0,0.054927272727272936,1.0436181818181818,0.054927272727272936
0.015551924611665997,188.44621544495746,-1.7908310828753553,179.40429741883054,-7.474257919366863,168.94157947183336,-2.7976564325178686,10.462717946997174,-4.676601486848995,34.83510462933422,12.886034412012645,144.56919278949633,-20.360292331379526,179.40429741883054,-7.474257919366863,9.041918026126929,5.683426836491508,0.0,0.0,54.763256547324765,-19.41757827149179,47.390148818858,-5.652474416480903,42.41578742331356,4.709760356593176,34.83510462933422,12.886034412012645,10,1.0397495802207314e-15,1.6976852533564638e-15,1.1102230246251565e-13,0.0,0.0411954545454547,1.0298863636363635,0.0411954545454547
0.018662309533999194,189.2492612602129,-1.7822790687994559,178.54837616890435,-8.424715055260904,171.46179223230476,-5.208955970017115,7.086583936599595,-3.215759085243789,33.14788904267533,12.16382767695873,145.40048712622902,-20.588542732219636,178.54837616890435,-8.424715055260904,10.700885091308564,6.642435986461448,0.0,0.0,55.191178828706605,-19.573904888097026,47.70595225875361,-5.683989598923368,42.503356038768814,4.669351754800761,33.14788904267533,12.16382767695873,10,1.075755663042634e-15,1.8279771128730065e-15,2.220446049250313e-13,0.0,0.027463636363636468,1.0161545454545453,0.027463636363636468
0.021772694456332394,191.30467473503413,-0.6422074713318189,178.81515246798187,-8.297150328336528,175.23185597376948,-6.646656061761433,3.583296494212391,-1.6504942665750946,34.316695595833835,12.365782003566888,144.49845687214804,-20.662932331903427,178.81515246798187,-8.297150328336528,12.489522267052264,7.654942857004709,0.0,0.0,55.359147820062475,-19.637565796002026,47.75058202999031,-5.690247513879466,41.38872702209524,4.664880977978068,34.316695595833835,12.365782003566888,10,8.415283787901307e-16,1.2470549392220245e-15,1.1102230246251565e-13,0.0,0.013731818181818234,1.0024227272727273,0.013731818181818234
0.024883079378665594,184.85431754668681,-3.500863809442821,182.08996039822745,-5.433743014460191,182.08996039822745,-5.433743014460191,0.0,0.0,38.87793157678862,15.31895191534457,143.21202882143882,-20.75269492980477,182.08996039822745,-5.433743014460191,2.7643571484593816,1.93287920501737,0.0,0.0,55.33469075044286,-19.631747399340412,47.542790856426606,-5.677089253636087,40.334547214569376,4.55614172317172,38.87793157678862,15.31895191534457,11,1.5893403821811018e-15,1.966348126877516e-15,2.220446049250313e-13,0.0,0.0,1.1300194991475307,0.0
0.027993464300998794,184.94549778667206,-2.618995691872746,181.23484236499036,-5.184410773165951,157.3665391689925,4.839808737692337,23.868303195997868,-10.024219510858288,38.92804452645157,15.426362136788125,142.30679783853878,-20.61077290995408,181.23484236499036,-5.184410773165951,3.710655421681698,2.5654150812932044,0.0,0.0,54.92602387079077,-19.467614769724428,47.20948750765269,-5.65004120961315,40.17128646009532,4.506883069383502,38.92804452645157,15.426362136788125,10,1.2626215270154782e-15,1.799992333895586e-15,1.1102230246251565e-13,0.0,0.09612272727272742,1.1162876809657125,0.09612272727272742
0.031103849223331995,189.05129604558772,-1.4124405009189545,184.26168346032148,-4.686189692528913,163.7306937377566,4.074456945505688,20.53098972256487,-8.7606466380346,39.52899636970583,15.420283335232696,144.73268709061566,-20.106473027761623,184.26168346032148,-4.686189692528913,4.7896125852662506,3.2737491916099586,0.0,0.0,54.75142717280887,-19.410246108649428,46.90188226173466,-5.616517026878391,43.07937765607212,4.92029010776621,39.52899636970583,15.420283335232696,10,9.63879609722519e-16,1.325885530003799e-15,1.1102230246251565e-13,0.0,0.08239090909090918,1.1025558627838943,0.08239090909090918
0.03421423414566519,189.71094684159507,-0.7339676304791061,183.71283150618544,-4.786605215681689,166.56308996556137,2.646821669686389,17.149741540624063,-7.433426885368078,39.33257435554394,15.26492024035101,144.38025715064148,-20.051525456032692,183.71283150618544,-4.786605215681689,5.998115335409643,4.052637585202583,0.0,0.0,54.514217937003465,-19.32947402679261,46.68691982991255,-5.582913427622948,43.17911938372547,4.8608619983828625,39.33257435554394,15.26492024035101,10,9.695819781270325e-16,1.524506739588844e-15,2.220446049250313e-13,0.0,0.06865909090909095,1.0888240446020763,0.06865909090909095
0.03732461906799839,188.8602990237021,-0.44791664524743524,181.5275712021179,-5.344630527511455,167.78556814965873,0.7046021479782496,13.742003052459182,-6.049232675489705,38.0334101178011,14.699414292635488,143.49416108431677,-20.044044820146937,181.5275712021179,-5.344630527511455,7.332727821584195,4.89671388226402,0.0,0.0,54.2380098248359,-19.2338826468575,46.5470813919601,-5.552619415384925,42.709069867520796,4.74245724209548,38.0334101178011,14.699414292635488,10,1.1845117124043917e-15,1.1169483373494045e-15,1.1102230246251565e-13,0.0,0.054927272727272936,1.075092226420258,0.054927272727272936
0.04043500399033159,191.01941641677612,0.8748637113224644,182.22971257402415,-4.9256460321394115,171.91123992038987,-0.31350467489765776,10.318472653634274,-4.612141357241754,39.435729571886895,14.978551129395104,142.79398300213722,-19.904197161534512,182.22971257402415,-4.9256460321394115,8.789703842751974,5.800509743461876,0.0,0.0,53.93913179893518,-19.12948134950292,46.42395785482635,-5.525639383799994,42.43089334837572,4.750923571768396,39.435729571886895,14.978551129395104,10,2.3410068886600364e-15,1.4711168685729154e-15,1.1102230246251565e-13,0.0,0.0411954545454547,1.0613604082384398,0.0411954545454547
0.04354538891266479,190.88945696026244,1.2862747562277788,180.52445688913627,-5.472200742933197,173.63920041011372,-2.3478023227314395,6.8852564790225586,-3.124398420201757,37.869607469934195,14.272916407927042,142.6548494192021,-19.745117150860253,180.52445688913627,-5.472200742933197,10.365000071126149,6.7584754991609755,0.0,0.0,53.62873176440229,-19.020432927249935,46.26803363557424,-5.500461088117088,42.75808401922558,4.775776864506767,37.869607469934195,14.272916407927042,10,1.1599659371250603e-15,2.3604439754442484e-15,1.1102230246251565e-13,0.0,0.027463636363636468,1.0476285900566216,0.027463636363636468
0.04665577383499799,188.16011327437803,1.6181090887510186,176.10582302459594,-6.146891761425351,172.660413925377,-4.5599104947305875,3.4454090992189492,-1.5869812666947638,36.662977975122345,13.756892265377406,139.4428450494736,-19.903784026802768,176.10582302459594,-6.146891761425351,12.054290249782085,7.76500085017637,0.0,0.0,53.31428064073309,-18.90958364548223,46.041125575806134,-5.475851124034907,40.08743883293435,4.481650742714372,36.662977975122345,13.756892265377406,10,1.0865547365943037e-15,1.2383219455354356e-15,1.1102230246251565e-13,0.0,0.013731818181818234,1.0338967718748036,0.013731818181818234
0.04976615875733119,185.76739683646522,-0.12157732499698293,183.07490217290328,-2.0858903067888406,183.07490217290328,-2.0858903067888406,0.0,0.0,43.299162647291205,17.43269847783968,139.77573952561204,-19.518588784628506,183.07490217290328,-2.0858903067888406,2.692494663561947,1.9643129817918576,0.0,0.0,53.004640932109,-18.799789018073913,45.72999475319357,-5.450276573628646,41.0411038403095,4.731476807074028,43.299162647291205,17.43269847783968,11,1.866437563181997e-15,1.7671398745169929e-15,1.1102230246251565e-13,0.0,0.0,1.1603193072748463,0.0
0.052876543679664385,186.17915423853347,0.8625089503020358,182.58700335194953,-1.7297018115599485,159.80795882409285,7.8367049573369485,22.779044527856684,-9.566406768896897,43.43874835128391,17.572484996256588,139.14825500066564,-19.302186807816533,182.58700335194953,-1.7297018115599485,3.5921508865839384,2.5922107618619843,0.0,0.0,52.49288259438715,-18.600154372884063,45.43245074687753,-5.423977032191363,41.22292165940095,4.721944597258901,43.43874835128391,17.572484996256588,10,1.0899805269431947e-15,1.1810304614650716e-15,1.1102230246251565e-13,0.0,0.09612272727272742,1.146587489093028,0.09612272727272742
0.05598692860199759,185.78802210173606,1.0645664531807468,181.17663222636244,-2.2266001217064115,161.61871912019677,6.118537382101934,19.55791310616567,-8.345137503808346,42.11451565341707,17.005526934106676,139.06211657294537,-19.232127055813088,181.17663222636244,-2.2266001217064115,4.611389875373619,3.2911665748871584,0.0,0.0,52.265871417281005,-18.52216374515553,45.25062451476108,-5.399919492631561,41.545620640903294,4.689956181974001,42.11451565341707,17.005526934106676,10,1.7126606850839577e-15,1.7910356378589033e-15,2.220446049250313e-13,0.0,0.08239090909090918,1.1328556709112099,0.08239090909090918
0.059097313524330786,187.0907991530154,1.6895154304177886,181.34477928052925,-2.365833888613139,165.0167637568302,4.711222085732359,16.328015523699065,-7.077055974345498,42.03520934201516,16.727822835262685,139.3095699385141,-19.093656723875817,181.34477928052925,-2.365833888613139,5.746019872486162,4.0553493190309275,0.0,0.0,52.04279736993657,-18.44496643388823,45.190867668299674,-5.380133842817639,42.07590490027786,4.731443552830047,42.03520934201516,16.727822835262685,10,1.0925781066031658e-15,2.508283323025722e-15,2.220446049250313e-13,0.0,0.06865909090909095,1.1191238527293919,0.06865909090909095
0.06220769844666399,186.4127014931041,2.313930113763057,179.42109887933546,-2.5649512202372478,166.33299110551536,3.1963248193230527,13.088107773820099,-5.7612760395603,42.32274755919255,16.73933075404129,137.0983513201429,-19.304281974278524,179.42109887933546,-2.5649512202372478,6.991602613768622,4.8788813340003045,0.0,0.0,51.82364817270222,-18.368688451730677,45.193590693966506,-5.364509794768367,40.0811124534742,4.428916272220512,42.32274755919255,16.73933075404129,10,1.0830006060052474e-15,1.968443722092445e-15,1.1102230246251565e-13,0.0,0.054927272727272936,1.1053920345475736,0.054927272727272936
0.06531808336899718,186.2988628225807,2.6839773375548104,177.95539278254242,-3.071882498063758,168.11857844460803,1.3249184333358244,9.836814337934385,-4.396800931399582,40.90376060910346,16.115010944529754,137.05163217343897,-19.186893442593522,177.95539278254242,-3.071882498063758,8.34347004003829,5.755859835618568,0.0,0.0,51.60845903533831,-18.293451057880066,45.191966055965956,-5.351656559876378,40.2512070821347,4.458214175162929,40.90376060910346,16.115010944529754,10,1.0740943677031669e-15,1.5337807471763668e-15,1.1102230246251565e-13,0.0,0.0411954545454547,1.0916602163657554,0.0411954545454547
0.06842846829133038,190.1283036856277,4.102657308067397,180.33156203928695,-2.5777207611370017,173.75886656668126,0.40482865854590955,6.572695472605687,-2.982549419682911,42.00899396927487,16.236887831839514,138.3225680700121,-18.814608592976512,180.33156203928695,-2.5777207611370017,9.79674164634076,6.680378069204399,0.0,0.0,51.39708672200477,-18.21932023768631,45.143567009394815,-5.340018887949357,41.7819143386125,4.744730532659162,42.00899396927487,16.236887831839514,10,1.2187974681801126e-15,1.9704132569181964e-15,2.220446049250313e-13,0.0,0.027463636363636468,1.0779283981839374,0.027463636363636468
0.07153885321366359,190.4648368576556,4.645669356004192,179.11849445953717,-3.0008767408011465,175.82423239246572,-1.4835167515211793,3.2942620670714575,-1.5173599892799672,40.80327344615867,15.696815524569601,138.3152210133785,-18.697692265370733,179.11849445953717,-3.0008767408011465,11.34634239811842,7.646546096805339,0.0,0.0,51.188895989388,-18.14621458602203,45.02112607436563,-5.32827604952921,42.105198949624885,4.776798370180504,40.80327344615867,15.696815524569601,10,1.1800525200287298e-15,1.6358828423420645e-15,2.220446049250313e-13,0.0,0.013731818181818456,1.0641965800021191,0.013731818181818456
0.07464923813599678,184.92489991579663,1.8320976030314304,182.34519062888566,-0.12224514980724166,182.3451906288856,-0.12224514980721324,5.684341886080802e-14,-2.842170943040401e-14,44.57997827178297,18.538386851505127,137.76521235710268,-18.660632001312372,182.34519062888566,-0.12224514980724166,2.5797092869109677,1.954342752838672,0.0,0.0,50.98764872978636,-18.075065243272164,44.84464388043686,-5.31469655565512,41.932919746879456,4.72912979761492,44.57997827178297,18.538386851505127,11,1.5477397916814217e-15,1.0994419510797264e-15,1.1102230246251565e-13,0.0,2.220446049250313e-16,1.1883144509722035,2.220446049250313e-16
0.07775962305832998,186.79273819218253,3.256505783465609,183.3791450407581,0.6978520081855066,161.479500548221,9.894368658804822,21.899644492537078,-9.196516650619316,46.53388324975074,19.231423773675367,136.84526179100737,-18.533571765489867,183.3791450407581,0.6978520081855066,3.4135931514244495,2.5586537752801024,0.0,0.0,50.59297125820325,-17.91801259221382,44.65299122444673,-5.298886547554298,41.599299308357374,4.68332737427826,46.53388324975074,19.231423773675367,10,1.3139642615656339e-15,1.6958396277110621e-15,1.1102230246251565e-13,0.0,0.09612272727272742,1.1745826327903852,0.09612272727272742
0.08087000798066318,185.42845257780021,3.3013698074513247,181.07694031011212,0.07471767476502578,162.24270779194362,8.110729171214771,18.834232518168506,-8.036011496449746,45.25344262096717,18.643476282525512,135.82349768914494,-18.568758607760486,181.07694031011212,0.07471767476502578,4.351512267688089,3.226652132686299,0.0,0.0,50.46585719087908,-17.875502196633946,44.46125197468256,-5.282150295510981,40.89638852358332,4.5888938843844365,45.25344262096717,18.643476282525512,10,1.976246138697642e-15,1.3062033836863995e-15,2.220446049250313e-13,0.0,0.08239090909090918,1.160850814608567,0.08239090909090918
0.08398039290299639,181.97000097312073,2.937963014969502,176.5814133360088,-1.0142462568505266,160.83202366276376,5.811831390074616,15.749389673245048,-6.8260776469251425,43.37648227570793,17.81301831487504,133.20493106030088,-18.827264571725564,176.5814133360088,-1.0142462568505266,5.388587637111924,3.9522092718200286,0.0,0.0,50.33840919830212,-17.83231704721421,44.26154610568707,-5.265080704709089,38.6049757563117,4.2701331801977425,43.37648227570793,17.81301831487504,10,1.2194515508778326e-15,9.726301417323864e-16,1.1102230246251565e-13,0.0,0.06865909090909095,1.1471189964267487,0.06865909090909095
0.08709077782532958,183.0989312363436,3.827027361902161,176.57914524764183,-0.9022056287749649,163.93502319657918,4.663543288049709,12.644122051062652,-5.565748916824674,43.65603893729129,17.82404198458714,132.92310631035056,-18.726247613362105,176.57914524764183,-0.9022056287749649,6.519785988701756,4.729232990677126,0.0,0.0,50.21016612448938,-17.78843158217514,44.040898593527025,-5.247412991159408,38.672041592334146,4.309596959972431,43.65603893729129,17.82404198458714,10,1.2851333496275942e-15,2.0426889223482664e-15,2.220446049250313e-13,0.0,0.054927272727272936,1.1333871782449307,0.054927272727272936
0.09020116274766278,185.08883953363602,4.6781230536089575,177.34890105565685,-0.8735645301975268,167.8313836216555,3.3804842430813835,9.517517434001348,-4.25404877327891,43.64146951990903,17.561164145082206,133.70743153574784,-18.43472867527973,177.34890105565685,-0.8735645301975268,7.739938477979162,5.551687583806484,0.0,0.0,50.080548442603785,-17.743794073387548,43.79812035449201,-5.228832953755852,39.82876273865204,4.537898351863678,43.64146951990903,17.561164145082206,10,1.1240865309840148e-15,1.8457377502060516e-15,2.220446049250313e-13,0.0,0.0411954545454547,1.1196553600631125,0.0411954545454547
0.09331154766999598,184.34133650849236,4.755027585339567,175.29757693427845,-1.658585702161389,168.92894501389284,1.2313544996360264,6.36863192038561,-2.8899402017974154,41.63555126727656,16.676860602004933,133.6620256670019,-18.335446304166332,175.29757693427845,-1.658585702161389,9.04375957421391,6.413613287500956,0.0,0.0,49.94860414734175,-17.698231347701856,43.54580016746331,-5.209613565904007,40.16762135219685,4.572398609439521,41.63555126727656,16.676860602004933,10,1.0409030285103473e-15,1.535308574721284e-15,2.220446049250313e-13,0.0,0.027463636363636468,1.1059235418812943,0.027463636363636468
0.09642193259232917,185.97506791855682,5.7880322471232954,175.54920185538197,-1.5211127096801391,172.35273605849375,-0.048799449212239665,3.1964657968882193,-1.4723132604678995,42.29450605539862,16.77834406359752,133.25469579998335,-18.299456773277676,175.54920185538197,-1.5211127096801391,10.425866063174864,7.309144956803435,0.0,0.0,49.81321070723493,-17.651491879987635,43.30768009314931,-5.190399337035805,40.13380499959913,4.542434443745762,42.29450605539862,16.77834406359752,10,1.273562354839598e-15,1.829831758764998e-15,2.220446049250313e-13,0.0,0.013731818181818456,1.092191723699476,0.013731818181818456
0.09953231751466238,180.74111908618232,3.076236331352063,178.30851521166213,1.1732988503341346,178.30851521166207,1.1732988503341488,5.684341886080802e-14,-1.4210854715202004e-14,45.74543005070039,19.4731116741115,132.56308516096172,-18.299812823777366,178.30851521166213,1.1732988503341346,2.432603874520205,1.9029374810179283,0.0,0.0,49.678468526097824,-17.60455508415881,43.099610011256765,-5.1705968580864425,39.78500662360716,4.4753391184678755,45.63520357284293,19.391191008707032,11,1.0295174870120149e-15,2.0965070454872817e-15,1.1102230246251565e-13,0.0,2.220446049250313e-16,1.212960484911357,2.220446049250313e-16
0.10264270243699558,176.91199514742613,2.7417047312833844,173.72517434211653,0.27487033017020224,152.4050334113338,9.227622980745423,21.320140930782742,-8.95275265057522,43.80698755230746,18.764961528623846,129.91818678980906,-18.490091198453648,173.72517434211653,0.27487033017020224,3.1868208053095994,2.466834401113182,0.0,0.0,49.343604585157046,-17.469273864381726,42.90621784983639,-5.149298388708605,37.668364354815616,4.128481054636694,43.80698755230746,18.764961528623846,10,9.414807819722703e-16,2.4549110737328276e-15,2.220446049250313e-13,0.0,0.09612272727272742,1.1992286667295389,0.09612272727272742
0.10575308735932877,179.57836699873548,4.078484329599609,175.54990269886562,0.9932172236549377,157.1921411767782,8.825717231679704,18.35776152208743,-7.832500008024766,45.941518325772186,19.402241576420916,129.60838437309343,-18.40902435276599,175.54990269886562,0.9932172236549377,4.028464299869863,3.0852671059446717,0.0,0.0,49.27306466133228,-17.447566593827364,42.712502978878554,-5.126797875122595,37.62281673288261,4.165340116183959,45.941518325772186,19.402241576420916,10,1.1860981107173004e-15,1.7936064312215363e-15,1.1102230246251565e-13,0.0,0.08239090909090918,1.1854968485477209,0.08239090909090918
0.10886347228166197,178.73418466608513,4.069538427201131,173.78179289169648,0.3173957212028,158.4138652606799,6.978038135740874,15.367927631016585,-6.660642414538074,44.394227906238704,18.63766976807006,129.38756498545777,-18.32027404686727,173.78179289169648,0.3173957212028,4.952391774388642,3.7521427059983306,0.0,0.0,49.19608546912379,-17.422980133370757,42.509386498764385,-5.103405098305739,37.68209301756961,4.206111184809224,44.394227906238704,18.63766976807006,10,1.5203809394059717e-15,1.827690129417367e-15,2.220446049250313e-13,0.0,0.06865909090909095,1.1717650303659026,0.06865909090909095
0.11197385720399518,179.64151783182965,4.790953214194097,173.68811723358246,0.3294699997031074,161.33748459149848,5.7659877357812235,12.35063264208398,-5.436517736078116,44.39472710106483,18.551113334539526,129.2933901325176,-18.221643334836408,173.68811723358246,0.3294699997031074,5.953400598247199,4.46148321449099,0.0,0.0,49.11256939645785,-17.39567080386285,42.29431385869171,-5.079305905486841,37.88650687736806,4.2533333745132715,44.39472710106483,18.551113334539526,10,1.7526868194774647e-15,1.0620459647897803e-15,1.1102230246251565e-13,0.0,0.054927272727272936,1.1580332121840844,0.054927272727272936
0.11508424212632837,181.1113943072569,5.375708375894215,174.08514810725637,0.1682661066997042,164.7794966698003,4.327603967036055,9.305651437456078,-4.1593378603363504,44.38168994522228,18.191930978797366,129.70345816203408,-18.02366487209767,174.08514810725637,0.1682661066997042,7.026246200000503,5.207442269194511,0.0,0.0,49.022154957928976,-17.365682320054322,42.07111290335312,-5.054622479432634,38.61019030075198,4.396639927389284,44.38168994522228,18.191930978797366,10,1.6336540022163129e-15,1.27521061212984e-15,1.1102230246251565e-13,0.0,0.0411954545454547,1.1443013940022664,0.0411954545454547
0.11819462704866157,180.1726778825807,5.458082949110632,172.00701793500664,-0.5262378883923731,165.7744479956284,2.3019579140492965,6.232569939378237,-2.8281958024416696,42.74474017320147,17.460072221561056,129.26227776180514,-17.986310109953408,172.00701793500664,-0.5262378883923731,8.165659947574044,5.984320837503005,0.0,0.0,48.924242979613325,-17.332952222971855,41.846784826105356,-5.029643613208595,38.491249956086456,4.376285726227046,42.74474017320147,17.460072221561056,10,1.3340431727153388e-15,1.4155150624009274e-15,1.1102230246251565e-13,0.0,0.027463636363636468,1.1305695758204481,0.027463636363636468
0.12130501197099477,180.36600417340094,5.957226975956927,170.99963743189255,-0.8293548883213191,167.8687688981462,0.6127436761229035,3.1308685337463658,-1.4420985644442226,42.44513429970669,17.15737525097038,128.55450313218589,-17.986730139291737,170.99963743189255,-0.8293548883213191,9.366366741508392,6.786581864278246,0.0,0.0,48.818188285449615,-17.29737723655311,41.631169281496085,-5.004831420475856,38.105145565240164,4.31547851773724,42.44513429970669,17.15737525097038,10,1.6640604668142316e-15,1.4850487533244683e-15,2.220446049250313e-13,0.0,0.013731818181818234,1.11683775763863,0.013731818181818234
0.12441539689332798,176.00168096036094,3.7447122147932306,173.74211084191032,1.9310130113266268,173.74211084191032,1.9310130113266268,0.0,0.0,46.05745591985936,19.934636066184172,127.68465492205097,-18.003623054857528,173.74211084191032,1.9310130113266268,2.2595701184506343,1.8136992034666037,0.0,0.0,48.703937178900624,-17.25899103964982,41.43050107794669,-4.980681586519619,37.55021666520366,4.236049571311913,45.4390695147842,19.46903210274326,11,1.154643124439628e-15,1.3865377168654798e-15,1.1102230246251565e-13,0.0,0.0,1.233337912650861,0.0
0.12752578181566118,174.37922488859925,3.8191482206511798,171.45304215730707,1.4949003441855808,150.544768792128,10.274683217756888,20.90827336517907,-8.779782873571307,44.776357865548235,19.40427809459599,126.67668429175883,-17.90937775041042,171.45304215730707,1.4949003441855808,2.926182731292188,2.324247876465599,0.0,0.0,48.3776196243439,-17.12885914626568,41.237420474461516,-4.9573574957550175,37.061644192953416,4.176838891610284,44.444405336655294,19.15648587042646,10,1.4637852441091413e-15,1.5609690992081903e-15,1.1102230246251565e-13,0.0,0.09612272727272742,1.2196060944690428,0.09612272727272742
0.13063616673799436,173.83018509201227,4.406730392382949,170.16628802860382,1.5273024687136427,152.15139883658952,9.213542482977118,18.014889192014294,-7.6862400142634755,45.689148334441924,19.693208728581062,124.47713969416189,-18.165906259867427,170.16628802860382,1.5273024687136427,3.663897063408448,2.879427923669306,0.0,0.0,48.30727477878581,-17.109936185773584,41.04497095172367,-4.934835722492091,35.124893963652426,3.878865648398243,45.689148334441924,19.693208728581062,10,1.1635376508170412e-15,1.364931031856068e-15,2.220446049250313e-13,0.0,0.08239090909090918,1.2058742762872248,0.08239090909090918
0.13374655166032756,172.91406504665508,4.3849793890961815,168.44636603497116,0.9114759342462833,153.35603815826343,7.45184426443258,15.090327876707732,-6.540368330186297,44.48234366037868,19.03581832896847,123.96402237459247,-18.12434239472217,168.44636603497116,0.9114759342462833,4.467699011683924,3.473503454849898,0.0,0.0,48.222854603802844,-17.085644136431064,40.8501393186295,-4.912989122976969,34.89102845216015,3.8742908646858503,44.48234366037868,19.03581832896847,10,1.6257223446802174e-15,1.080609792338937e-15,1.1102230246251565e-13,0.0,0.06865909090909095,1.1921424581054065,0.06865909090909095
0.13685693658266077,172.07784621514847,4.318733366571884,166.7452483826881,0.21781646764935658,154.61048758528332,5.5593446338451145,12.134760797404766,-5.341528166195758,42.92768888717803,18.245677301940223,123.81755949551005,-18.027860834290856,166.7452483826881,0.21781646764935658,5.332597832460383,4.100916898922527,0.0,0.0,48.12596792139118,-17.05652206900331,40.65377850366236,-4.891702997444661,35.03781307045651,3.920364232157116,42.92768888717803,18.245677301940223,10,1.508983066785622e-15,9.670239798523234e-16,2.220446049250313e-13,0.0,0.054927272727272936,1.1784106399235883,0.054927272727272936
0.13996732150499397,172.80450962320703,4.864107902672477,166.5508680698004,0.10780714228226884,157.40270870729688,4.196770008602513,9.14815936250352,-4.088962866320244,42.68161947248344,18.019522138099052,123.86924859731697,-17.911714995816787,166.5508680698004,0.10780714228226884,6.253641553406617,4.756300760390208,0.0,0.0,48.01788522454975,-17.02301526648427,40.45786444543167,-4.870960100863918,35.39349892733555,3.982260371531403,42.68161947248344,18.019522138099052,10,1.2538363893611752e-15,9.757946264575613e-16,1.1102230246251565e-13,0.0,0.0411954545454547,1.16467882174177,0.0411954545454547
0.14307770642732717,174.4198506035551,5.551883074496554,167.19391874774925,0.11739487124341963,161.06357149141442,2.899211509304365,6.130347256334829,-2.7818166380609455,43.011566533602085,17.85985897453691,124.18235221414719,-17.7424641032935,167.19391874774925,0.11739487124341963,7.2259318558058325,5.434488203253134,0.0,0.0,47.899715372453294,-16.98552388147488,40.263177962250026,-4.850834324320161,36.01945887944386,4.093894102501551,43.011566533602085,17.85985897453691,10,2.24612217020766e-15,1.7581004516913346e-15,2.220446049250313e-13,0.0,0.027463636363636468,1.150947003559952,0.027463636363636468
0.14618809134966038,173.0828304788611,5.313268657167436,164.83819209194044,-0.8172537969299043,161.7571301079638,0.601904610773758,3.081061983976639,-1.4191584077036623,40.95598206780111,16.870665631736085,123.88221002413931,-17.68791942866597,164.83819209194044,-0.8172537969299043,8.24463838692065,6.13052245409734,0.0,0.0,47.772543460015484,-16.944449993643648,40.07627451972163,-4.831504268046498,36.033392044402206,4.088034833024171,40.95598206780111,16.870665631736085,10,1.7510539517501721e-15,1.2195802228107029e-15,2.220446049250313e-13,0.0,0.013731818181818234,1.1372151853781338,0.013731818181818234
0.14929847627199355,170.82030470148567,3.896802163577763,168.75026069226328,2.2033939989846942,168.75026069226323,2.2033939989847227,5.684341886080802e-14,-2.842170943040401e-14,45.42265772140001,19.873286861577565,123.32760297086328,-17.66989286259286,168.75026069226328,2.2033939989846942,2.070044009222378,1.6934081645930685,0.0,0.0,47.64104744543468,-16.90107366914941,39.90437551674354,-4.812497355130676,35.78218000868506,4.043678161687225,44.43538129309822,19.123059180134327,11,1.2044271052633514e-15,1.5376238660420003e-15,1.1102230246251565e-13,0.0,2.220446049250313e-16,1.2486864912916522,2.220446049250313e-16
0.15240886119432676,169.4067531036448,3.8789832578640473,166.7597075013404,1.7363218547783958,146.11594920884556,10.406817510517769,20.643758292494823,-8.670495655739373,44.22534871849693,19.347137847568106,122.53435878284344,-17.61081599278971,166.7597075013404,1.7363218547783958,2.6470456023044155,2.1426614030856515,0.0,0.0,47.39107007686009,-16.80504122938354,39.74190967790151,-4.793268290620292,35.40137902808185,3.987493527214106,43.46739031721953,18.775780841950503,10,1.1338571560908725e-15,1.896113626590449e-15,1.1102230246251565e-13,0.0,0.09612272727272742,1.234954673109834,0.09612272727272742
0.15551924611665996,165.6874309624435,3.09005693278671,162.40722681048317,0.4631684711793582,144.6351927204381,8.04683678873802,17.772034090045054,-7.583668317558661,41.62479483034543,18.26948943526572,120.78243198013774,-17.806320964086375,162.40722681048317,0.4631684711793582,3.2802041519603353,2.6268884616073516,0.0,0.0,47.28515147222116,-16.770436821857572,39.581693029937945,-4.7739458870423785,33.91558747797864,3.738061744813578,41.245537665500386,17.986087411570935,10,1.2975342489636746e-15,2.0435613095298276e-15,1.1102230246251565e-13,0.0,0.08239090909090918,1.2212228549280157,0.08239090909090918
0.15862963103899316,167.1066397583272,4.036610886035925,163.14169511048695,0.8956420065403421,148.2643750189889,7.344250625037418,14.877320091498063,-6.448608618497076,43.11348786288869,18.701946714919316,120.02820724759825,-17.80630470837896,163.14169511048695,0.8956420065403421,3.9649446478402517,3.140968879495583,0.0,0.0,47.18004658140739,-16.735768478526595,39.41645517533046,-4.754453377980255,33.431705490860395,3.6839171481278914,43.11348786288869,18.701946714919316,10,1.1378865341649876e-15,9.925132188351706e-16,1.1102230246251565e-13,0.0,0.06865909090909095,1.2074910367461975,0.06865909090909095
0.16174001596132637,166.213516229915,3.9500457187696085,161.51673712278725,0.2700443959972034,149.55877023430185,5.534017103410051,11.957966888485402,-5.263972707412847,41.90444365185483,18.014321930353326,119.61229347093243,-17.744277534356137,161.51673712278725,0.2700443959972034,4.696779107127741,3.680001322772405,0.0,0.0,47.07470018588757,-16.700797059337503,39.243461818397705,-4.734738861713733,33.294131466647144,3.6912583866951074,41.90444365185483,18.014321930353326,10,1.255405963145756e-15,1.5485459788535558e-15,1.1102230246251565e-13,0.0,0.054927272727272936,1.1937592185643793,0.054927272727272936
0.16485040088365957,165.30247939824295,3.8011741245666784,159.83116138022984,-0.43813561789848166,150.81890338130518,3.5901875187855268,9.012257998924667,-4.028323136684008,40.379226720905166,17.206593333416976,119.45193465932469,-17.644728951315464,159.83116138022984,-0.43813561789848166,5.471318018013099,4.23930974246516,0.0,0.0,46.96804216290392,-16.66525261720388,39.06568800902004,-4.714970671904645,33.41820448740072,3.735494337793069,40.379226720905166,17.206593333416976,10,1.3426168531519354e-15,1.5312154200281729e-15,8.326672684688674e-14,0.0,0.0411954545454547,1.1800274003825613,0.0411954545454547
0.16796078580599277,165.80757411919464,4.325808097954838,159.52329302085334,-0.4886402855680245,153.484823385822,2.251512969587793,6.038469635031333,-2.7401532551558176,40.26702684884844,17.072558972429814,119.25626617200489,-17.561199257997842,159.52329302085334,-0.4886402855680245,6.28428109834129,4.814448383522863,0.0,0.0,46.85910141960226,-16.628876443765467,38.888457268701956,-4.695520022129376,33.50870748370069,3.763197207896985,40.26702684884844,17.072558972429814,10,9.943669194868704e-16,2.10529118270493e-15,1.1102230246251565e-13,0.0,0.027463636363636468,1.166295582200743,0.027463636363636468
0.17107117072832595,166.50347845374898,4.668819555949997,159.37197110085714,-0.7323861095290454,156.33705115107202,0.6655222835214403,3.0349199497851203,-1.3979083930504856,40.18046691824657,16.719887355093892,119.19150418261056,-17.45227346462294,159.37197110085714,-0.7323861095290454,7.131507352891857,5.401205665479043,0.0,0.0,46.747046290856844,-16.59144342357752,38.715053823790925,-4.676773657637947,33.72940406796279,3.81594361659252,40.18046691824657,16.719887355093892,10,1.0721251563372086e-15,1.3160474455149872e-15,1.1102230246251565e-13,0.0,0.013731818181818456,1.1525637640189248,0.013731818181818456
0.17418155565065915,162.97967559439354,2.7759279936694483,161.10596678794036,1.2248170101513836,161.1059667879403,1.224817010151412,5.684341886080802e-14,-2.842170943040401e-14,42.31735883797583,18.63588263511013,118.78860794996456,-17.411065624958766,161.10596678794036,1.2248170101513836,1.8737088064531666,1.551110983518065,0.0,0.0,46.6334972491594,-16.553321192175634,38.543596104213805,-4.658448346129003,33.611514596591356,3.800703913345867,41.146545457463404,17.74119588487031,11,9.81299517656168e-16,1.957638643805169e-15,1.1102230246251565e-13,0.0,2.220446049250313e-16,1.2584335946872145,2.220446049250313e-16
0.17729194057299236,162.9171355279539,3.2720714931976556,160.55279615308424,1.335702174933317,140.32432833966192,9.832117460686291,20.228467813422327,-8.496415285752974,42.470737259517406,18.658791676514,118.08205889356684,-17.32308950158069,160.55279615308424,1.335702174933317,2.364339374869641,1.9363693182643384,0.0,0.0,46.35932601355531,-16.444826378315934,38.37278003814202,-4.640030100137588,33.349952841869516,3.761766976872833,41.50079290933929,17.923251416387124,10,9.855564748116877e-16,1.1699067842976626e-15,1.1102230246251565e-13,0.0,0.09612272727272742,1.2447017765053963,0.09612272727272742
0.18040232549532556,161.1954611140117,2.8600237463912226,158.29716310032893,0.5120388573265728,140.85926601560294,7.953385552280466,17.43789708472599,-7.441346694953893,40.81147143685937,17.84859516453556,117.48569166346958,-17.336556307208987,158.29716310032893,0.5120388573265728,2.8982980136827754,2.3479848890646497,0.0,0.0,46.28973139745916,-16.424533477414986,38.20822522823964,-4.621637396267797,32.98773503777079,3.709614566473789,40.18547986331207,17.37789081225502,10,9.986928578767909e-16,1.4451896253620232e-15,1.1102230246251565e-13,0.0,0.08239090909090918,1.2309699583235783,0.08239090909090918
0.18351271041765876,160.30020032852977,2.8990454313376657,156.82854940168946,0.11743086841141803,142.21275146761533,6.452857936807661,14.615797934074124,-6.335427068396243,40.00810880328277,17.47251349562506,116.82044059840675,-17.355082627213655,156.82854940168946,0.11743086841141803,3.4716509268403035,2.7816145629262476,0.0,0.0,46.21377933925184,-16.401595601282295,38.04853739247883,-4.603459515505778,32.55812386667606,3.6499724895744166,39.76039063049168,17.28788603997058,10,1.0052144175830803e-15,1.9204399630079922e-15,1.1102230246251565e-13,0.0,0.06865909090909095,1.21723814014176,0.06865909090909095
0.18662309533999197,158.80591988170943,2.813081806107031,154.7253284319876,-0.4200681723962987,142.96409193492045,4.757404561783687,11.76123649706716,-5.177472734179986,39.36269026546462,17.092992852517778,115.36263816652298,-17.513061024914073,154.7253284319876,-0.4200681723962987,4.080591449721817,3.2331499785033295,0.0,0.0,46.131467330405606,-16.37605998457161,37.89058717723106,-4.585636544850139,31.340583658886313,3.448635504507674,39.36269026546462,17.092992852517778,10,1.2279801525858833e-15,2.317949935317648e-15,1.1102230246251565e-13,0.0,0.054927272727272936,1.2035063219599418,0.054927272727272936
0.18973348026232514,157.84197499877158,2.6485267025723895,153.12052782604258,-1.0501917369468003,144.24725909198193,2.9160532949840103,8.873268734060645,-3.9662450319308107,38.19462467850971,16.425128556903,114.92590314753288,-17.475320293849798,153.12052782604258,-1.0501917369468003,4.721447172729004,3.69871843951919,0.0,0.0,46.04277603085163,-16.347970689035225,37.73221813241953,-4.568250088524772,31.150908984261726,3.4409004837101893,38.19462467850971,16.425128556903,10,1.489647235873551e-15,1.1495178798072389e-15,1.1102230246251565e-13,0.0,0.0411954545454547,1.1897745037781235,0.0411954545454547
0.19284386518465835,157.96484544852433,2.9709638695482745,152.57415907786066,-1.2037189645962485,146.62317893781332,1.496748443061847,5.950980140047335,-2.7004674076580955,37.95454949471439,16.211499763329748,114.61960958314626,-17.415218727925996,152.57415907786066,-1.2037189645962485,5.390686370663664,4.174682834144523,0.0,0.0,45.94774280403267,-16.317396482926046,37.5738261637885,-4.551409676543425,31.098040615325065,3.4535874315434807,37.95454949471439,16.211499763329748,10,1.650380300384084e-15,1.0755483238429854e-15,5.551115123125783e-14,0.0,0.027463636363636468,1.1760426855963055,0.027463636363636468
0.19595425010699155,157.2078549720151,2.8311027541992946,151.12293122972787,-1.8265378678778177,148.12943044054268,-0.447705412927192,2.993500789185191,-1.3788324549506257,36.645042040905516,15.505407801985886,114.47788918882239,-17.331945669863714,151.12293122972787,-1.8265378678778177,6.084923742287231,4.657640622077112,0.0,0.0,45.84646703545971,-16.284437423791992,37.4175660205322,-4.535314490758509,31.213856132830472,3.4878062446867872,36.645042040905516,15.505407801985886,10,1.5038228493666507e-15,1.952107599446994e-15,1.1102230246251565e-13,0.0,0.013731818181818456,1.1623108674144873,0.013731818181818456
0.19906463502932475,155.5051737541023,1.471697914426093,153.82543128321117,0.0747657541438258,153.82543128321117,0.0747657541438258,0.0,0.0,39.39969594301164,17.30800801341042,114.42573534019951,-17.23324225926659,153.82543128321117,0.0747657541438258,1.6797424708911164,1.3969321602822673,0.0,0.0,45.742467867642794,-16.250025416828223,37.261983353607405,-4.519414854588568,31.421284118949316,3.5361980121501997,38.235059048964565,16.41618537688203,11,1.3549707509350438e-15,2.0000247029772424e-15,1.1102230246251565e-13,0.0,0.0,1.2622155770311378,0.0
0.20217501995165796,155.83976212060188,2.0624003877516763,153.74842167955768,0.3421802875487856,133.81567354161854,8.715306599337609,19.932748137939143,-8.373126311788823,39.73831961885149,17.454742108372596,114.0101020607062,-17.112561820823828,153.74842167955768,0.3421802875487856,2.0913404410441987,1.7202201002028905,0.0,0.0,45.48727189802525,-16.148906838676922,37.104254789577126,-4.503005100718477,31.418575373103835,3.539350118571573,38.76233470649086,16.71295480151168,10,1.8354893195433027e-15,2.5053183268903365e-15,1.1102230246251565e-13,0.0,0.09612272727272742,1.2484837588493196,0.09612272727272742
0.20528540487399116,154.5528005473976,1.7303714169544304,152.01689830000137,-0.3324038858797138,134.82742928482986,7.003501307394316,17.18946901517151,-7.33590519327403,38.36062338528071,16.765634584325134,113.65627491472065,-17.09803847020484,152.01689830000137,-0.3324038858797138,2.5359022473962134,2.0627753028341442,0.0,0.0,45.42435503579587,-16.13025953155543,36.9447369452987,-4.486183012500717,31.287182933626077,3.518404073851313,37.694572505174094,16.263620395942535,10,1.718892057343408e-15,1.3615971834363284e-15,1.1102230246251565e-13,0.0,0.08239090909090918,1.2347519406675014,0.08239090909090918
0.20839578979632437,152.97149027267295,1.2921410665931377,149.9612638131283,-1.1289470017738665,135.54783479372517,5.1190869622246495,14.41342901940314,-6.248033963998516,36.764806871619996,15.969719013374917,113.19645694150832,-17.09866601514878,149.9612638131283,-1.1289470017738665,3.010226459544632,2.421088068367004,0.0,0.0,45.3584099550547,-16.110033807304053,36.785217726525474,-4.469059221831028,31.05282925992816,3.48042701398629,36.440971011006006,15.727762906825895,10,1.4257675303026131e-15,2.0492110557560394e-15,1.6653345369377348e-13,0.0,0.06865909090909095,1.2210201224856831,0.06865909090909095
0.21150617471865754,152.35161818412135,1.3399840020124425,148.8403618323264,-1.4518923596110653,137.23700312174518,3.6562457044091587,11.603358710581233,-5.108138064020224,36.131297777503214,15.646847704264534,112.70906405482319,-17.09874006387559,148.8403618323264,-1.4518923596110653,3.5112563517949273,2.791876361623508,0.0,0.0,45.28904669311355,-16.088164962735995,36.6339284113139,-4.45183859156198,30.786088950395715,3.4412634904224024,36.131297777503214,15.646847704264534,10,1.005073581310706e-15,1.6625544444130736e-15,1.1102230246251565e-13,0.0,0.054927272727272936,1.2072883043038651,0.054927272727272936
0.21461655964099075,150.86212164158115,1.152352018830483,146.82603850150971,-2.0197305157830954,138.06799157198506,1.8950809614293291,8.758046929524653,-3.9148114772124245,35.271575453112696,15.200144991402958,111.55446304839701,-17.219875507186053,146.82603850150971,-2.0197305157830954,4.036083140071428,3.1720825346135784,0.0,0.0,45.21586322604553,-16.064588582017805,36.49049229868386,-4.434767458080902,29.848107523667615,3.279480532912661,35.271575453112696,15.200144991402958,10,1.122354808193845e-15,1.6179006800351516e-15,1.1102230246251565e-13,0.0,0.0411954545454547,1.193556486122047,0.0411954545454547
0.21772694456332395,149.53644241819651,0.8230411901032735,144.95449379198732,-2.735828152897625,139.07811985959142,-0.06919558542233517,5.876373932395893,-2.6666325674752898,33.98539387597736,14.489885379324122,110.96909991600995,-17.225713532221732,144.95449379198732,-2.735828152897625,4.5819486262091935,3.5588693430008984,0.0,0.0,45.138492767792485,-16.039258888313277,36.35173464719579,-4.418027793370802,29.47887250102168,3.2315731494623456,33.98539387597736,14.489885379324122,10,1.3862829929406849e-15,1.5953502311321802e-15,1.1102230246251565e-13,0.0,0.027463636363636468,1.1798246679402287,0.027463636363636468
0.22083732948565715,149.5333279216223,1.0859497980711335,144.3870806533415,-2.863665508936819,141.42975385728568,-1.501492578489902,2.9573267960558383,-1.362172930446917,33.82858770457079,14.33253503322735,110.55849294877072,-17.196200542164178,144.3870806533415,-2.863665508936819,5.146247268280763,3.9496153070079525,0.0,0.0,45.05663390085351,-16.012160219923935,36.21539918118936,-4.401769316871828,29.28645986672784,3.2177289946315906,33.82858770457079,14.33253503322735,10,1.1253798553935777e-15,1.1110751877694987e-15,5.551115123125783e-14,0.0,0.013731818181818234,1.1660928497584104,0.013731818181818234
0.22394771440799036,147.07695990317805,-0.30286730008838525,145.58076274881455,-1.5437048507465505,145.58076274881455,-1.5437048507465505,0.0,0.0,35.25626215603003,15.592801751079008,110.3245005927845,-17.136506601825552,145.58076274881455,-1.5437048507465505,1.4961971543635013,1.2408375506581653,0.0,0.0,44.97005570618568,-15.98330923803439,36.08141347905687,-4.386183733972761,29.27303140754196,3.232986370181596,34.2559442424718,14.827856492260395,11,1.4942273917805783e-15,9.57040592757219e-16,5.551115123125783e-14,0.0,0.0,1.2598913397874285,0.0
0.22705809933032356,147.08000745437752,-0.09081532391818792,145.2411754368615,-1.598628202640441,125.64174424751486,6.634637677311602,19.599431189346646,-8.233265879952043,35.24516772414697,15.373889300620537,109.99600771271457,-16.97251750326099,145.2411754368615,-1.598628202640441,1.8388320175160218,1.5078128787222531,0.0,0.0,44.67917886406573,-15.865925441762126,35.95149409455203,-4.371547835506563,29.365334754096786,3.2649557740077064,34.42765613590451,14.753439649834593,10,1.1660063704611107e-15,9.636714778762698e-16,8.326672684688674e-14,0.0,0.09612272727272742,1.2461595216056103,0.09612272727272742
0.23016848425265674,147.45009960646,0.24894345361780146,145.2435581139164,-1.539712776050166,128.32754007906078,5.679588741161901,16.916018034855625,-7.219301517212067,35.41706835367331,15.4000613422665,109.8264897602431,-16.939774118316663,145.2435581139164,-1.539712776050166,2.20654149254359,1.7886562296679676,0.0,0.0,44.63516404195919,-15.855579582996764,35.82605735848014,-4.357819099403256,29.365268359803782,3.273624564083347,34.877452668291305,14.993939943463928,10,1.0875145322822712e-15,1.1574811964058665e-15,1.1102230246251565e-13,0.0,0.08239090909090918,1.2324277034237923,0.08239090909090918
0.23327886917498994,146.35209899246843,-0.0752268864515564,143.75524479446287,-2.1558821924859046,129.55996482839112,3.997640701427919,14.195279966071752,-6.153522893913824,34.18259376985813,14.76574382114324,109.57265102460475,-16.92162601362915,143.75524479446287,-2.1558821924859046,2.596854198005548,2.0806553060343482,0.0,0.0,44.58591231005118,-15.842735729299052,35.70119085641906,-4.344067938108548,29.285547858134517,3.265177653778448,33.94703156149489,14.59000854380333,10,1.1682575631261235e-15,2.703702547201961e-15,1.6653345369377348e-13,0.0,0.06865909090909095,1.218695885241974,0.06865909090909095
0.23638925409732314,145.08468875248192,-0.44018411356407894,142.07724569964347,-2.821485726415453,130.6410274318241,2.213098064937874,11.436218267819356,-5.034583791353327,32.8426291480797,14.094575143856309,109.23461655156376,-16.91606087027177,142.07724569964347,-2.821485726415453,3.0074430528384504,2.381301612851374,0.0,0.0,44.53196189893039,-15.827557336650397,35.57636606625785,-4.330263659013426,29.12628858637553,3.24176012539205,32.8426291480797,14.094575143856309,10,1.253327697583071e-15,1.2585596838444933e-15,5.551115123125783e-14,0.0,0.054927272727272936,1.2049640670601558,0.054927272727272936
0.23949963901965635,144.40622839836328,-0.4917072792621977,140.97010284048415,-3.179991771740383,132.332178355229,0.6811353817039176,8.637924485255155,-3.8611271534443006,32.140751862144576,13.738639790260015,108.82935097833956,-16.9186315620004,140.97010284048415,-3.179991771740383,3.4361255578791408,2.6882844924781852,0.0,0.0,44.47351152503376,-15.810145910701522,35.45173636339463,-4.3164387281604295,28.904103089911178,3.2079530768615534,32.140751862144576,13.738639790260015,10,1.1468148779303436e-15,1.9038939760884655e-15,5.551115123125783e-14,0.0,0.0411954545454547,1.1912322488783376,0.0411954545454547
0.24261002394198955,144.44218203842576,-0.3766346329848136,140.5613183916061,-3.3761193762497257,134.7617330135117,-0.7443300276255584,5.799585378094406,-2.6317893486241672,32.06966810710219,13.526940878300685,108.49165028450389,-16.903060254550397,140.5613183916061,-3.3761193762497257,3.8808636468196425,2.999484743264912,0.0,0.0,44.410720311882294,-15.79061046315353,35.3312644084373,-4.302683723890937,28.7496655641843,3.1902339324940634,32.06966810710219,13.526940878300685,10,1.3991171319481593e-15,1.2588171621362368e-15,5.551115123125783e-14,0.0,0.027463636363636468,1.1775004306965196,0.027463636363636468
0.24572040886432275,142.24102815448646,-0.9153158613933603,137.90126502280503,-4.228283731637013,134.98078055058377,-2.883080463294114,2.9204844722212613,-1.3452032683428996,30.374889896355242,12.773651938026205,107.52637512644979,-17.00193566966321,137.90126502280503,-4.228283731637013,4.339763131681413,3.312967870243653,0.0,0.0,44.3437103015645,-15.76906739939252,35.21542360756222,-4.289153012795747,27.967241217323075,3.0562847425250528,30.374889896355242,12.773651938026205,10,1.6625819699427276e-15,1.098380205809154e-15,8.326672684688674e-14,0.0,0.013731818181818234,1.1637686125147013,0.013731818181818234
0.24883079378665596,140.40907278428512,-1.8276068390006472,139.07949641297847,-2.919178384742395,139.07949641297847,-2.919178384742395,0.0,0.0,32.135122116529615,14.102384991844898,106.94437429644887,-17.021563376587302,139.07949641297847,-2.919178384742395,1.3295763713066413,1.0915715457417476,0.0,0.0,44.27257944653179,-15.745642392129351,35.103031780260295,-4.276001597064411,27.568763069656793,3.000080612606448,31.40330291476438,13.545445761371706,11,1.2637965415280957e-15,1.2745610134455058e-15,5.551115123125783e-14,0.0,0.0,1.2515475958073288,0.0
0.25194117870898913,139.0465643806517,-1.9176971097302693,137.43186067225537,-3.227870983768703,112.25350149270727,6.9662757918936435,25.178359179548096,-10.194146775662347,31.234503043862727,13.622804261661337,106.19735762839267,-16.850675245430047,137.43186067225537,-3.227870983768703,1.6147037083963194,1.3101738740384339,0.0,0.0,43.839594899624956,-15.568424085970928,34.99306668978589,-4.263372694599035,27.364696038981812,2.9811215351399127,30.68061850066626,13.204574715151228,10,1.6609690713098722e-15,1.518000420150549e-15,8.326672684688674e-14,0.0,0.12759677187480367,1.2378157776255105,0.12759677187480367
0.25505156363132236,139.5486967799368,-1.7023822712657908,137.62943604473074,-3.241222000108202,114.99819352345652,6.071821160976491,22.631242521274217,-9.313043161084693,31.534407863314524,13.577521644738868,106.09502818141621,-16.81874364484706,137.62943604473074,-3.241222000108202,1.9192607352060607,1.5388397288424112,0.0,0.0,43.828017286934134,-15.569023923697245,34.88543067239726,-4.251419915999014,27.38158022208482,3.0017001948491977,31.228244607445696,13.348319325946093,10,1.504873372338849e-15,2.2368638914257958e-15,5.551115123125783e-14,0.0,0.11386495369298522,1.2240839594436923,0.11386495369298522
0.25816194855365554,138.76443523585976,-1.9723224420040693,136.52299581464334,-3.7478770494148037,116.47549519681138,4.635356118519233,20.047500617831957,-8.383233167934037,30.515977939334153,13.038732139539727,106.00701787530917,-16.78660918895452,136.52299581464334,-3.7478770494148037,2.2414394212164224,1.7755546074107345,0.0,0.0,43.80714600806304,-15.566443233695043,34.78102599943952,-4.240335862647537,27.418845867806603,3.020169907388061,30.4770336259962,13.009838819809056,10,1.0977006930751077e-15,1.9158943234928533e-15,5.551115123125783e-14,0.0,0.1001331355111672,1.2103521412618743,0.1001331355111672
0.2612723334759887,138.69912406709432,-1.9266291964525029,136.11956018121398,-3.9451038474412385,118.69372212991983,3.4581974645431472,17.42583805129415,-7.403301311984386,30.227351729313384,12.815411125627753,105.89220845190057,-16.76051497306898,136.11956018121398,-3.9451038474412385,2.579563885880323,2.0184746509887357,0.0,0.0,43.77707906948512,-15.560603081647482,34.68029375101208,-4.230151607277897,27.43483563140337,3.030239715856407,30.227351729313384,12.815411125627753,10,1.1543337144299587e-15,1.7570348342792484e-15,1.1102230246251565e-13,0.0,0.08640131732934919,1.196620323080056,0.08640131732934919
0.26438271839832195,138.15631125018908,-2.041227085989052,135.2242224189184,-4.307146554647346,120.45910927362388,2.0646982915711476,14.76511314529452,-6.371844846218494,29.507205897419897,12.43789915680878,105.71701652149854,-16.745045711456136,135.2242224189184,-4.307146554647346,2.932088831270678,2.265919468658294,0.0,0.0,43.74286493484462,-15.552643834571102,34.578600662470976,-4.219735940882302,27.395550924182935,3.0273340639972695,29.507205897419897,12.43789915680878,10,1.0569981286159841e-15,1.7461705041263289e-15,1.1102230246251565e-13,0.0,0.07266949914753096,1.1828885048982378,0.07266949914753096
0.2674931033206551,137.22387514201608,-2.3178373263679335,133.9262774242522,-4.834202123841479,121.86194605619129,0.4532720802611152,12.064331368060905,-5.287474204102594,28.452753236684458,11.90570833922032,105.47352418756773,-16.739910463061804,133.9262774242522,-4.834202123841479,3.297597717763883,2.5163647974735452,0.0,0.0,43.70526334120343,-15.542765549265722,34.47527884932569,-4.208930621576648,27.292981997038602,3.0117857077805716,28.452753236684458,11.90570833922032,10,1.0944724282052968e-15,1.816852807840434e-15,1.1102230246251565e-13,0.0,0.058937680965712724,1.1691566867164198,0.058937680965712724
0.27060348824298835,136.34645619056872,-2.6319308248237854,132.67165548296282,-5.4003658619369475,123.34901393664599,-1.2515510320371135,9.32264154631683,-4.148814829899834,27.381687125661866,11.31850377172185,105.28996835730092,-16.718869633658784,132.67165548296282,-5.4003658619369475,3.6748007076059075,2.768435037113162,0.0,0.0,43.66405520341569,-15.530955479169835,34.37135083695444,-4.19781684566019,27.254562316930794,3.009902691171236,27.381687125661866,11.31850377172185,10,1.2069452030015938e-15,1.8947710118312637e-15,1.1102230246251565e-13,0.0,0.04520586278389449,1.1554248685346014,0.04520586278389449
0.27371387316532153,134.44546204202237,-3.502267764735662,133.2608177144381,-4.458200088356698,126.72148337745811,-1.503689827790808,6.539334336979991,-2.9545102605658897,28.65928443508301,12.332264614910397,104.60153327935511,-16.790464703267098,133.2608177144381,-4.458200088356698,1.1846443275842735,0.9559323236210354,0.0,0.0,43.619009486194706,-15.517210543657454,34.270855334608854,-4.186534778248767,26.71166845855154,2.913280618639128,28.23974894210956,12.015620150086207,11,1.1165036782611319e-15,2.3789352493971904e-15,5.551115123125783e-14,0.0,0.03147404460207648,1.2374956342384953,0.03147404460207648
0.27682425808765476,133.8373895096955,-3.526979006737068,132.4134146502764,-4.662051026639844,128.6995741313712,-2.958825639313517,3.7138405189051866,-1.7032253873263272,28.357807026739504,12.165463489413225,104.05560762353687,-16.827514516053064,132.4134146502764,-4.662051026639844,1.4239748594191004,1.135072019902776,0.0,0.0,43.56988475533176,-15.501536413270568,34.17472187047293,-4.17527647312507,26.311000997732183,2.849298370342577,28.11122112450543,11.980905407688704,11,1.9785962856251712e-15,1.5887757356479764e-15,5.551115123125783e-14,0.0,0.017742226420258023,1.223763816056677,0.017742226420258023
0.27993464300998794,132.79636415614615,-3.8345684411739276,131.11738768750396,-5.156378881489701,130.27166061109548,-4.762729984551825,0.8457270764084797,-0.39364889693787575,27.437329915806057,11.67103965809427,103.68005777169792,-16.82741853958398,131.11738768750396,-5.156378881489701,1.6789764686421962,1.3218104403157733,0.0,0.0,43.51643683978879,-15.48394810365928,34.08257549853391,-4.164242387394793,26.08104543337522,2.820771951470096,27.410168414848965,11.650892501325668,11,2.1265093270334267e-15,1.692827687149074e-15,5.551115123125783e-14,0.0,0.004010408238440011,1.210031997874859,0.004010408238440011
0.2830450279323211,131.88369415457157,-3.7608013455267306,129.93528912127624,-5.275501927896713,104.63438018249995,4.934779164303208,25.30090893877629,-10.21028109219992,26.868162404920817,11.367824453687383,103.06712671635543,-16.6433263815841,129.93528912127624,-5.275501927896713,1.9484050332953269,1.5147005823699817,0.0,0.0,43.086912119563834,-15.30695360147532,33.993762803228265,-4.153626280760863,25.986451793563326,2.817253500652079,26.868162404920817,11.367824453687383,10,1.1941472359371445e-15,2.6040462039616998e-15,5.551115123125783e-14,0.0,0.130432943638483,1.1963001796930408,0.130432943638483
0.28615541285465435,131.24625275399424,-3.96865821103757,129.01512187450842,-5.681088731332977,106.2004426845268,3.6769300076048097,22.814679189981618,-9.358018738937787,26.06470821549683,10.955768633035568,102.95041365901159,-16.636857364368545,129.01512187450842,-5.681088731332977,2.23113087948582,1.712430520295407,0.0,0.0,43.095756376855334,-15.314617172016224,33.90794685329379,-4.143619681948682,25.946710428862467,2.82137948959636,26.06470821549683,10.955768633035568,10,1.5235112044412145e-15,1.9023706727848285e-15,1.1102230246251565e-13,0.0,0.11670112545666456,1.1825683615112226,0.11670112545666456
0.2892657977769875,131.87901268986042,-3.7999116361690684,129.35287630631697,-5.713727829327411,109.0651537094045,2.742563426019963,20.287722596912474,-8.456291255347374,26.386671029957235,10.887063703860308,102.96620527635974,-16.600791533187717,129.35287630631697,-5.713727829327411,2.5261363835434367,1.9138161931583426,0.0,0.0,43.092789688256204,-15.318158686325425,33.825451071445826,-4.134429045757527,26.047964516657714,2.851796198895233,26.386671029957235,10.887063703860308,10,1.3153768044962412e-15,1.6143711425176981e-15,5.551115123125783e-14,0.0,0.10296930727484654,1.1688365433294046,0.10296930727484654
0.29237618269932075,131.5391680929591,-3.857922064682823,128.70665462573305,-5.975716274566672,110.98729247338676,1.5281477021949428,17.719362152346292,-7.503863976761615,25.84889109225038,10.612751458607187,102.85776353348265,-16.588467733173854,128.70665462573305,-5.975716274566672,2.8325134672260583,2.117794209883849,0.0,0.0,43.0781725435677,-15.317540879907792,33.74654545968002,-4.126135972511179,26.033045530234933,2.8552091192451154,25.84889109225038,10.612751458607187,10,1.4664859310587928e-15,1.352251581776504e-15,1.1102230246251565e-13,0.0,0.08923748909302831,1.155104725147586,0.08923748909302831
0.29548656762165393,130.65773282655243,-4.170140976503795,127.50827182020451,-6.4935556727655594,112.39915762024465,0.0059915123740310605,15.109114199959862,-6.4995471851395905,24.81051269401995,10.089517500398873,102.69775912618456,-16.583073173164433,127.50827182020451,-6.4935556727655594,3.149461006347927,2.323414696261764,0.0,0.0,43.05668130387755,-15.31387255684454,33.667276171743765,-4.117769340979464,25.97380165056325,2.848568724659568,24.81051269401995,10.089517500398873,10,1.2662445181253945e-15,1.5292495859464929e-15,1.1102230246251565e-13,0.0,0.07550567091121008,1.141372906965768,0.07550567091121008
0.2985969525439871,128.99311882347624,-5.006923429883011,127.9286523384821,-5.845383490352006,115.47198739631736,-0.403192614962407,12.456664942164736,-5.442190875389599,25.443536058154432,10.738536532658962,102.48511628032766,-16.58392002301096,127.9286523384821,-5.845383490352006,1.0644664849941359,0.8384600604689948,0.0,0.0,43.029664224842335,-15.307534715371919,33.58709340050446,-4.109156132838249,25.868358654980877,2.8327708251992014,25.325938743797302,10.650835577877876,11,1.3064151183078854e-15,2.71069786344774e-15,8.326672684688674e-14,0.0,0.061773852729392065,1.2182597069216012,0.061773852729392065
0.30170733746632034,128.78239591010603,-5.025162964694564,127.51323173986151,-6.0121320273386445,117.75139210312959,-1.681456261831137,9.76183963673192,-4.330675765507507,25.28643236337413,10.576941640392924,102.22679937648739,-16.58907366773156,127.51323173986151,-6.0121320273386445,1.2691641702445309,0.9869690626440807,0.0,0.0,42.99747753534252,-15.298704303227465,33.50733446753928,-4.10037492276369,25.72198737360559,2.810005558259597,25.28643236337413,10.576941640392924,11,1.1265558617181884e-15,1.7013567616946222e-15,6.245004513516506e-14,0.0,0.04804203454757383,1.2045278887397828,0.04804203454757383
0.3048177223886535,128.57019854512257,-5.052845303758168,127.08292082964623,-6.194485949634235,120.0583492802279,-3.030582461670825,7.024571549418326,-3.1639034879634096,24.983548851325764,10.37103413238211,102.09937197832046,-16.56552008201634,127.08292082964623,-6.194485949634235,1.4872777154763401,1.141640645876066,0.0,0.0,42.960418914954815,-15.287562011586477,33.429990921161284,-4.0915470131316205,25.708962142204367,2.813588942701754,24.983548851325764,10.37103413238211,11,1.166836676023825e-15,1.1697931564159748e-15,1.1102230246251565e-13,0.0,0.0343102163657556,1.1907960705579648,0.0343102163657556
0.30792810731098674,127.26118329040139,-5.330832493833087,125.54316139107252,-6.632295042533066,121.29828533434795,-4.6915066473607965,4.244876056724564,-1.9407883951722695,24.186527229836734,10.01717551185446,101.35663416123577,-16.649470554387523,125.54316139107252,-6.632295042533066,1.7180218993288747,1.3014625486999787,0.0,0.0,42.918701705857224,-15.27427800686315,33.355624116736756,-4.082822208683407,25.082308338641795,2.707629661159034,24.186527229836734,10.01717551185446,11,1.1389657527016895e-15,1.7867801645566185e-15,5.551115123125783e-14,0.0,0.020578398183937363,1.1770642523761463,0.020578398183937363
0.3110384922333199,126.35666404093702,-5.541585410099105,124.3959563478613,-7.007110014525274,122.9731242680908,-6.346857880097389,1.422832079770501,-0.6602521344278856,23.462871980388684,9.661811499649927,100.93308436747262,-16.66892151417521,124.3959563478613,-7.007110014525274,1.9607076930757132,1.4655246044261692,0.0,0.0,42.872445310643904,-15.259002841904312,33.284166105420034,-4.074364578198679,24.776472951408685,2.664445905927783,23.462871980388684,9.661811499649927,11,1.765827534621443e-15,1.2688617478194843e-15,5.551115123125783e-14,0.0,0.006846580002119351,1.1633324341943283,0.006846580002119351
0.31414887715565315,125.13390261460746,-5.666697445335441,122.91916280458626,-7.299709677945373,97.83175331315479,2.8191130969991534,25.087409491431472,-10.118822774944526,22.600945944948997,9.221305476856566,100.31821685963725,-16.521015154801933,122.91916280458626,-7.299709677945373,2.214739810021205,1.6330122326099317,0.0,0.0,42.49093508085937,-15.101691435656232,33.21549781130327,-4.066349819188801,24.611783967474622,2.6470261000430853,22.600945944948997,9.221305476856566,10,1.3660860848277514e-15,1.917550276705582e-15,5.551115123125783e-14,0.0,0.13096445097220344,1.14960061601251,0.13096445097220344
0.3172592620779863,125.64845408873794,-5.550525050347913,123.16883983137686,-7.353725099171413,100.53372701731023,1.9255717591875836,22.63511281406663,-9.279296858358997,22.820075820135763,9.13835730631467,100.34876401124112,-16.492082405486087,123.16883983137686,-7.353725099171413,2.4796142573610767,1.8032000488235005,0.0,0.0,42.5007466137931,-15.109173691588918,33.149751013139,-4.058965739290306,24.698266384309008,2.6760570253931384,22.820075820135763,9.13835730631467,10,1.2408072334240764e-15,2.140767831391306e-15,1.1102230246251565e-13,0.0,0.1172326327903852,1.135868797830692,0.1172326327903852
0.3203696470003195,125.41482471469497,-5.606724482066934,122.659908809926,-7.582170087367736,102.51834981904375,0.8084773064409276,20.141558990882245,-8.390647393808663,22.357711363706123,8.897329013604255,100.30219744621988,-16.47949910097199,122.659908809926,-7.582170087367736,2.7549159047689837,1.9754456053008023,0.0,0.0,42.499367170775095,-15.1127314887672,33.087426655154985,-4.052413592585923,24.715403620289813,2.685645980381123,22.357711363706123,8.897329013604255,10,1.2408626337856105e-15,1.9574890988499366e-15,5.551115123125783e-14,0.0,0.1035008146085672,1.1221369796488738,0.1035008146085672
0.32348003192265273,124.03046100196445,-6.338115791926169,123.05981462080042,-7.079633149923353,105.45356227245671,0.37205564551928916,17.606252348343716,-7.451688795442642,22.82796981236634,9.390619913279831,100.23184480843409,-16.470253063203184,123.05981462080042,-7.079633149923353,0.9706463811640254,0.7415173579971839,0.0,0.0,42.48769802781992,-15.112504562653388,33.02795577566329,-4.046583306817505,24.716191004950886,2.6888348062677068,22.82796981236634,9.390619913279831,11,1.2461244911894046e-15,1.8066920152182003e-15,5.551115123125783e-14,0.0,0.08976899642674896,1.1945574695557122,0.08976899642674896
0.3265904168449859,123.43149391923383,-6.51180772277779,122.28060421600424,-7.379276505192323,107.25167762110301,-0.9179738866168421,15.028926594901222,-6.4613026185754805,22.163355444775537,9.08776076734039,100.11724877122869,-16.467037272532703,122.28060421600424,-7.379276505192323,1.1508897032295935,0.867468782414533,0.0,0.0,42.470402581452966,-15.10959478307423,32.967312567212026,-4.040494417704409,24.679533622563707,2.6830519282459324,22.163355444775537,9.08776076734039,11,1.5799399337996722e-15,1.942150851328797e-15,5.551115123125783e-14,0.0,0.07603717824493095,1.180825651373894,0.07603717824493095
0.32970080176731914,123.07759019788186,-6.584488352559302,121.7341267894407,-7.583374953614474,109.32461562925818,-2.1649457349573,12.409511160182518,-5.418429218657174,21.785119445926426,8.887294275071174,99.94900734351427,-16.47066922868564,121.7341267894407,-7.583374953614474,1.3434634084411679,0.9988866010551716,0.0,0.0,42.448184979065964,-15.104243907625007,32.90555133200523,-4.034103068791854,24.595271032443062,2.667677747731222,21.785119445926426,8.887294275071174,11,1.4470717277436028e-15,1.2998149615914547e-15,5.551115123125783e-14,0.0,0.06230536006311249,1.1670938331920757,0.06230536006311249
0.3328111866896523,122.98845948526207,-6.595806427993963,121.44050979752386,-7.7308831263213165,111.69242256635923,-3.408829144077231,9.748087231164632,-4.3220539822440855,21.68965391837481,8.744314977869868,99.75085587914904,-16.47519810419118,121.44050979752386,-7.7308831263213165,1.547949687738212,1.1350766983273526,0.0,0.0,42.42136659308236,-15.09663226457975,32.845459247108224,-4.027506320207062,24.484030038958462,2.648940480595627,21.68965391837481,8.744314977869868,11,1.6934595730039443e-15,1.804325904629459e-15,5.551115123125783e-14,0.0,0.04857354188129448,1.1533620150102577,0.04857354188129448
0.33592157161198555,122.71485973686882,-6.696632362122904,120.95084828612626,-7.972051706482418,113.90600694299478,-4.800860441806094,7.0448413431314805,-3.171191264676324,21.157692222038484,8.46203008016997,99.79315606408777,-16.43408178665239,120.95084828612626,-7.972051706482418,1.7640114507425648,1.2754193443595134,0.0,0.0,42.39022053085024,-15.086946214244964,32.78904314098409,-4.020860593634094,24.613892392253426,2.6737250212266694,21.157692222038484,8.46203008016997,11,1.4489804876050592e-15,1.585358429706119e-15,5.551115123125783e-14,0.0,0.034841723699476246,1.1396301968284392,0.034841723699476246
0.3390319565343187,121.60330007583234,-6.975965435140537,119.61190975632775,-8.3953291413955,115.31188566910454,-6.4304597928099625,4.300024087223207,-1.9648693485855375,20.377941700467034,8.09803555369523,99.23396805586071,-16.493364695090722,119.61190975632775,-8.3953291413955,1.991390319504594,1.4193637062549629,0.0,0.0,42.354939702477125,-15.075360068583194,32.736821661116025,-4.014349747443243,24.142206692267578,2.5963451209357036,20.377941700467034,8.09803555369523,11,1.4641006864134006e-15,1.4824383819899036e-15,8.326672684688674e-14,0.0,0.021109905517658012,1.1258983786466212,0.021109905517658012
0.3421423414566519,120.55603582188958,-7.262633056045228,118.32613112977413,-8.829055568142536,116.81221223672539,-8.126936726636593,1.5139188930487393,-0.7021188415059427,19.55384450364982,7.699728074763939,98.77228662612433,-16.528783642906486,118.32613112977413,-8.829055568142536,2.2299046921154577,1.5664225120973077,0.0,0.0,42.315625249872205,-15.062024339545138,32.688654011570826,-4.008167921856572,23.768007364681296,2.541408618495227,19.55384450364982,7.699728074763939,11,1.206386154379275e-15,1.484205638062051e-15,5.551115123125783e-14,0.0,0.00737808733584,1.1121665604648032,0.00737808733584
0.34525272637898513,119.96676723025813,-7.169118249466261,117.48731934564915,-8.885285120102296,93.19061836554026,0.9477614057345463,24.296700980108895,-9.833046525836842,19.30956388383812,7.521721151336369,98.17775546181102,-16.407006271438647,117.48731934564915,-8.885285120102296,2.4794478846089767,1.7161668706360345,0.0,0.0,41.97379966393282,-14.920277184279545,32.644228278969145,-4.002511896345808,23.55972751890906,2.515782809186703,19.30956388383812,7.521721151336369,10,1.011442519101454e-15,1.5246874226154111e-15,5.551115123125783e-14,0.0,0.12814684854772085,1.0984347422829848,0.12814684854772085
0.3483631113013183,119.74733239749058,-7.4708367534993485,118.8436360863252,-8.136501532629275,96.97682516756097,0.8576708487510984,21.86681091876423,-8.994172381380373,20.54175422889726,8.232990863713246,98.30188185742792,-16.36949239634251,118.8436360863252,-8.136501532629275,0.9036963111653772,0.6656647791299267,0.0,0.0,41.9878413848019,-14.928789955297612,32.603315969904514,-3.9975764698949323,23.71072450272151,2.556874028850034,20.54175422889726,8.232990863713246,11,1.8204834020648593e-15,1.4041497822906012e-15,3.469446951953614e-14,0.0,0.11441503036590284,1.1672732073351955,0.11441503036590284
0.35147349622365154,119.29229584931525,-7.620851957931426,118.22372532614753,-8.396912083219611,98.82884126696483,-0.29081387787797297,19.3948840591827,-8.106098205341638,19.958629104325905,7.9685293274150055,98.26509622182164,-16.365441410634627,118.22372532614753,-8.396912083219611,1.068570523167716,0.7760601252881852,0.0,0.0,41.99075289215454,-14.933356689467779,32.56583811040826,-3.993534891478049,23.708505219258832,2.5614501703112005,19.958629104325905,7.9685293274150055,11,1.7220286719062028e-15,1.0760345490629058e-15,5.551115123125783e-14,0.0,0.10068321218408438,1.1535413891533772,0.10068321218408438
0.3545838811459847,118.71849032573024,-7.825243125895728,117.4728735845585,-8.716985737769178,100.59206093832634,-1.5492118482070296,16.880812646232158,-7.167773889562149,19.27009802887229,7.648585544772983,98.2027755556862,-16.365571282542152,117.4728735845585,-8.716985737769178,1.2456167411717436,0.8917426118734504,0.0,0.0,41.98586399972462,-14.934734752232334,32.528213618591856,-3.989730918061193,23.68869793736973,2.5588943877513675,19.27009802887229,7.648585544772983,11,1.223441889287985e-15,1.1745116881949337e-15,5.551115123125783e-14,0.0,0.08695139400226637,1.139809570971559,0.08695139400226637
0.35769426606831795,118.13899954523606,-8.011026167849124,116.70428231105352,-9.023270447583734,102.37957874615154,-2.8450488110890433,14.32470356490198,-6.1782216364946905,18.61024463825992,7.349128438617337,98.09403767279358,-16.372398886201054,116.70428231105352,-9.023270447583734,1.434717234182536,1.0122442797346105,0.0,0.0,41.97549768768498,-14.933530599757116,32.48598113744607,-3.985727264182687,23.632558847662544,2.54685897773874,18.61024463825992,7.349128438617337,11,1.2801004037869457e-15,1.5146106439926736e-15,4.163336342344337e-14,0.0,0.07321957582044814,1.1260777527897408,0.07321957582044814
0.3608046509906511,118.35380389742325,-7.955965914566857,116.71797982214748,-9.093115725098642,104.99115090576653,-3.95659520237529,11.726828916380953,-5.136520522723352,18.730858123916786,7.28090506966711,97.9871216982307,-16.37402079476574,116.71797982214748,-9.093115725098642,1.6358240752757687,1.1371498105317852,0.0,0.0,41.9602489633312,-14.929989655009573,32.44342422570534,-3.981555872971599,23.583448509194156,2.537524733215424,18.730858123916786,7.28090506966711,11,1.3242343808113567e-15,1.4267452428464328e-15,5.551115123125783e-14,0.0,0.05948775763863012,1.1123459346079227,0.05948775763863012
0.3639150359129843,117.98532059686323,-8.03651036678089,116.13636276166636,-9.302602421788556,107.04879407109638,-5.2608162357978046,9.08756869056998,-4.041786185990752,18.317530708323623,7.081330368323121,97.81883205334273,-16.383932790111675,116.13636276166636,-9.302602421788556,1.8489578351968674,1.2660920550076664,0.0,0.0,41.940697960243696,-14.92438126437737,32.40445123137061,-3.977346168726763,23.473682861728435,2.5177946429924525,18.317530708323623,7.081330368323121,11,1.5991198849288495e-15,1.794461141631358e-15,5.551115123125783e-14,0.0,0.04575593945681189,1.0986141164261045,0.04575593945681189
0.36702542083531753,117.66372621429302,-8.198167933375139,115.58951983532164,-9.59691563579105,109.18216693562897,-6.703767074371115,6.407352899692668,-2.8931485614199346,17.618582624857105,6.744231792612707,97.97093721046454,-16.34114742840376,115.58951983532164,-9.59691563579105,2.0742063789713807,1.3987477024159105,0.0,0.0,41.917358888569304,-14.916974964096665,32.37073639884325,-3.973272397170021,23.682841923051992,2.5490999328629265,17.618582624857105,6.744231792612707,11,1.3459920101260383e-15,1.3092664487719525e-15,5.551115123125783e-14,0.0,0.032024121274993655,1.0848822982442863,0.032024121274993655
0.3701358057576507,116.79509037942091,-8.425467677520924,114.48336661012601,-9.960300765362305,110.7967555193087,-8.270569591842673,3.6866110908173084,-1.6897311735196325,16.922725570127042,6.424232736856074,97.56064103999897,-16.38453350221838,114.48336661012601,-9.960300765362305,2.3117237692948964,1.5348330878413812,0.0,0.0,41.89064548290996,-14.908020279480844,32.342493257219026,-3.969516637477673,23.327502299869973,2.4930034147401443,16.922725570127042,6.424232736856074,11,1.1068555657517637e-15,1.2304620991194349e-15,4.163336342344337e-14,0.0,0.018292303093175644,1.0711504800624683,0.018292303093175644
0.37324619067998394,116.07030064318877,-8.7188580374545,115.20683779451883,-9.329052632514035,114.28110253149507,-8.898417658832344,0.9257352630237676,-0.43063497368169124,18.117994500890767,7.100823991640262,97.08884329362807,-16.429876624154303,115.20683779451883,-9.329052632514035,0.863462848669938,0.6101945950595346,0.0,0.0,41.860855560768194,-14.89773255356163,32.319211575762765,-3.9662525781522255,22.9087761570971,2.4341085075595643,18.117994500890767,7.100823991640262,12,2.7538115667988894e-15,1.2347276162874593e-15,5.551115123125783e-14,0.0,0.004560484911357188,1.1374248439584924,0.004560484911357188
0.3763565756023171,115.86174946846575,-8.61406458845992,114.84063992189316,-9.325008824858884,92.00432617253092,-0.00521954941194025,22.836313749362233,-9.319789275446944,17.919806318477793,6.954599973457205,96.92083360341537,-16.2796087983161,114.84063992189316,-9.325008824858884,1.0211095465725841,0.7109442363989632,0.0,0.0,41.60062316903441,-14.789097456843564,32.300177413126704,-3.963642143900273,23.020033021254243,2.4731308024277467,17.919806318477793,6.954599973457205,11,9.757209633785702e-16,1.6735024290080313e-15,5.551115123125783e-14,0.0,0.12106063992358851,1.1236930257766744,0.12106063992358851
0.3794669605246503,115.33940869421613,-8.798089303682273,114.14784874908665,-9.615263030737374,93.74164137482322,-1.1521497648569436,20.40620737426343,-8.46311326588043,17.319378282366994,6.67932537196892,96.82847046671964,-16.29458840270629,114.14784874908665,-9.615263030737374,1.19155994512949,0.8171737270551005,0.0,0.0,41.61499050903537,-14.797101349814021,32.28475305953994,-3.9618356461449906,22.928726898144333,2.4643485932527174,17.319378282366994,6.67932537196892,11,1.5815262502480362e-15,1.3183215232086923e-15,4.163336342344337e-14,0.0,0.10732882174177028,1.1099612075948564,0.10732882174177028
0.3825773454469835,114.85990947119042,-8.961846731504767,113.48495226106697,-9.890421197648486,95.5500646478977,-2.33303840542694,17.934887613169266,-7.557382792221546,16.732109319650757,6.418263008532137,96.7528429414162,-16.308684206180626,113.48495226106697,-9.890421197648486,1.3749572101234548,0.9285744661437192,0.0,0.0,41.62293338081057,-14.80252774072051,32.26442234988512,-3.9603235978566076,22.865487210720502,2.4541671323964955,16.732109319650757,6.418263008532137,11,1.1521431469160432e-15,1.5403424908148843e-15,5.551115123125783e-14,0.0,0.09359700355995204,1.096229389413038,0.09359700355995204
0.3856877303693167,114.23615000108656,-9.196518272019519,112.66464140680208,-10.241392339098248,97.2423803384764,-3.639844022431035,15.422261068325682,-6.601548316667213,16.00668904151704,6.084993410566836,96.65795236528503,-16.326385749665082,112.66464140680208,-10.241392339098248,1.571508594284476,1.0448740670787278,0.0,0.0,41.626741905403385,-14.80594296740692,32.23722726150415,-3.9585600926731246,22.793983198377493,2.4381173104149614,16.00668904151704,6.084993410566836,11,9.753595040254594e-16,1.2138010083762288e-15,5.551115123125783e-14,0.0,0.07986518537813403,1.08249757123122,0.07986518537813403
0.3887981152916499,114.85104557086345,-8.998376502706856,113.06956065462097,-10.164209210523936,100.20114884525441,-4.569588854966753,12.868411809366563,-5.594620355557183,16.417277701507434,6.158277730401715,96.65228295311354,-16.322486940925668,113.06956065462097,-10.164209210523936,1.7814849162424757,1.1658327078170796,0.0,0.0,41.62676279287458,-14.807500814431148,32.210005713223204,-3.9565922430266127,22.815514447015765,2.441606116532091,16.417277701507434,6.158277730401715,11,1.5056576484430672e-15,1.273508280314154e-15,5.551115123125783e-14,0.0,0.0661333671963158,1.0687657530494015,0.0661333671963158
0.3919085002139831,114.32258596944314,-9.187058952995459,112.31736581802308,-10.478298537891668,102.04380969313073,-5.94264386914562,10.273556124892352,-4.535654668746048,15.776601053932561,5.8590083032959575,96.54076476409051,-16.337306841187623,112.31736581802308,-10.478298537891668,2.0052201514200685,1.2912395848962082,0.0,0.0,41.623376417257276,-14.807390807793752,32.18764427877247,-3.954577572457543,22.729744068060775,2.4246615390636723,15.776601053932561,5.8590083032959575,11,1.2560108697411804e-15,1.3250617583515455e-15,5.551115123125783e-14,0.0,0.05240154901449756,1.0550339348675835,0.05240154901449756
0.39501888513631633,114.44026247235684,-9.279754829927581,112.19715133718591,-10.700664294679903,104.55916056253103,-7.27693096192457,7.637990774654881,-3.423733332755333,15.11352750251514,5.560087140193275,97.08362383467079,-16.2607514348732,112.19715133718591,-10.700664294679903,2.2431111351709148,1.4209094647523224,0.0,0.0,41.61694492069767,-14.805817540999344,32.172644580485475,-3.952726290844149,23.29403433348763,2.4977923969703024,15.11352750251514,5.560087140193275,11,1.295943061858488e-15,1.7314039702220923e-15,5.551115123125783e-14,0.0,0.03866973083267933,1.0413021166857652,0.03866973083267933
0.3981292700586495,113.36685834334807,-9.753683966674416,112.51733369344878,-10.32737125937296,107.55529431769756,-8.069427827737393,4.962039375751218,-2.2579434316355673,15.619411951265345,5.9638257515785105,96.89792174218346,-16.29119701095148,112.51733369344878,-10.32737125937296,0.8495246498992959,0.5736872926985438,0.0,0.0,41.60776731096644,-14.802979806417563,32.16559469834472,-3.9512560900729063,23.124559732872285,2.463038885538994,15.619411951265345,5.9638257515785105,12,1.7316792955173682e-15,1.2374354509467884e-15,5.551115123125783e-14,0.0,0.024937912650861316,1.1061259648396153,0.024937912650861316
0.4012396549809827,113.2878090294891,-9.708609659486951,112.28034959610648,-10.37839044387134,110.0343463811724,-9.341034384628301,2.2460032149340776,-1.037356059243038,15.79418777154724,5.96517338792,96.48616182455925,-16.34356383179135,112.28034959610648,-10.37839044387134,1.007459433382626,0.6697807843843887,0.0,0.0,41.596049511423985,-14.79905272167651,32.1658855913536,-3.950367434657254,22.72422672178165,2.4058563245424214,15.79418777154724,5.96517338792,12,1.2147818662100328e-15,1.7451551909309596e-15,5.551115123125783e-14,0.0,0.011206094469043082,1.0923941466577973,0.011206094469043082
0.4043500399033159,112.37435975021766,-9.76481562647232,111.19477440011661,-10.536660259969373,88.20387570352686,-1.1719060934071095,22.990898696589753,-9.364754166562264,15.390234410879863,5.776148013992551,95.80453998923674,-16.312808273961924,111.19477440011661,-10.536660259969373,1.1795853501010438,0.7718446334970536,0.0,0.0,41.38702677321396,-14.711051529084688,32.17211689047519,-3.9502354095455097,22.245396325547592,2.3484786646682725,15.390234410879863,5.776148013992551,11,1.3330355248685356e-15,2.601788993364626e-15,5.551115123125783e-14,0.0,0.12267740038256125,1.078662328475979,0.12267740038256125
0.4074604248256491,112.43679804125719,-9.80268664961986,111.07050269122503,-10.682370697800515,90.48879899601616,-2.1627431354104942,20.581703695208873,-8.51962756239002,14.977491041774122,5.581008784291211,96.09301164945089,-16.263379482091715,111.07050269122503,-10.682370697800515,1.3662953500321564,0.8796840481806557,0.0,0.0,41.414166708760185,-14.723236889535563,32.17420835915706,-3.950897372969349,22.50463658153366,2.4107547804131855,14.977491041774122,5.581008784291211,11,1.1008347237369547e-15,2.1253979775160677e-15,5.551115123125783e-14,0.0,0.10894558220074324,1.0649305102941609,0.10894558220074324
0.4105708097479823,111.83289180088867,-10.017698368317689,110.26484589189145,-11.0108263898219,92.13383359997023,-3.3851667195269926,18.131012291921223,-7.625659670294908,14.31740153415485,5.2877375048542,95.9474443577366,-16.298563894676096,110.26484589189145,-11.0108263898219,1.568045908997219,0.9931280215042128,0.0,0.0,41.43638335430254,-14.733322989062366,32.16526708567809,-3.9515921217827046,22.345793917755966,2.386351216168972,14.31740153415485,5.2877375048542,11,1.1783288131155683e-15,1.811184305577071e-15,5.551115123125783e-14,0.0,0.095213764018925,1.0511986921123426,0.095213764018925
0.4136811946703155,111.92732327979503,-9.978683532201096,110.14196600710594,-11.090709752878638,94.5033017840529,-4.40894693890052,15.638664223053041,-6.681762813978118,14.323783558493574,5.243963196220114,95.81818244861238,-16.334672949098767,110.14196600710594,-11.090709752878638,1.7853572726891007,1.1120262206775426,0.0,0.0,41.45478744730763,-14.741588740683206,32.15166125149562,-3.9520582863703524,22.21173374980912,2.358974077954791,14.323783558493574,5.243963196220114,11,1.2683401746141997e-15,2.4150883760945487e-15,5.551115123125783e-14,0.0,0.08148194583710677,1.0374668739305246,0.08148194583710677
0.41679157959264873,112.01242692655427,-10.021797663742776,109.99361312193987,-11.258043595556607,96.88893955223571,-5.571134962007768,13.104673569704161,-5.686908633548839,14.035093297160676,5.058761148906423,95.9585198247792,-16.316804744463035,109.99361312193987,-11.258043595556607,2.018813804614401,1.2362459318138312,0.0,0.0,41.46976202082279,-14.74818150822028,32.14177491994713,-3.952411888126095,22.346982884009275,2.383788651883343,14.035093297160676,5.058761148906423,11,1.1421989298343559e-15,2.2875664293456924e-15,8.326672684688674e-14,0.0,0.06775012765528854,1.0237350557487062,0.06775012765528854
0.4199019645149819,111.59578771747005,-10.17198943840687,109.32672328203235,-11.537658490987177,98.7975309854302,-6.897541800445779,10.529192296602147,-4.640116690541397,13.45357791005446,4.805730019961473,95.87314537197788,-16.343388510948643,109.32672328203235,-11.537658490987177,2.2690644354376928,1.3656690525803072,0.0,0.0,41.48176248457851,-14.753297945960513,32.14156185981896,-3.9528879078071384,22.249821027580413,2.3627973428190057,13.45357791005446,4.805730019961473,11,1.654560441811294e-15,2.0963731276200138e-15,5.551115123125783e-14,0.0,0.05401830947347053,1.0100032375668881,0.05401830947347053
0.4230123494373151,110.61235783123205,-10.614677744355726,109.75086813459288,-11.169167619214399,101.83840527963031,-7.6287303515866824,7.91246285496257,-3.5404372676277163,14.010576372575139,5.206777249972477,95.74029176201773,-16.37594486918687,109.75086813459288,-11.169167619214399,0.8614896966391689,0.5544898748586724,0.0,0.0,41.491259122511664,-14.757163279954291,32.153804735436914,-3.9537612727327858,22.095227904069166,2.3349796835001992,14.010576372575139,5.206777249972477,12,1.6265925046328419e-15,1.4454277174057973e-15,5.551115123125783e-14,0.0,0.04028649129165229,1.0745442713637896,0.04028649129165229
0.4261227343596483,111.30917965198778,-10.470401573186924,110.28217773695869,-11.120661161069101,105.0274128933613,-8.733731000159352,5.2547648435973855,-2.386930160909749,14.266542735376593,5.242120406215087,96.0156350015821,-16.362781567284188,110.28217773695869,-11.120661161069101,1.027001915029087,0.650259587882177,0.0,0.0,41.49868077599269,-14.760008468842269,32.1786964236613,-3.9552900449506154,22.338257801928105,2.352516946508695,14.266542735376593,5.242120406215087,12,1.6741712129560793e-15,1.3658282714219128e-15,5.551115123125783e-14,0.0,0.02655467310983406,1.0608124531819714,0.02655467310983406
0.4292331192819815,111.05369859882406,-10.58919341735648,109.84479320457913,-11.34196300779712,107.28843182616882,-10.163321290917402,2.5563613784103154,-1.1786417168797172,13.8318846822775,5.043517328341094,96.01290852230164,-16.385480336138222,109.84479320457913,-11.34196300779712,1.208905394244928,0.7527695904406402,0.0,0.0,41.504367916366306,-14.762048252444595,32.214297560395636,-3.957684000737858,22.2942430455397,2.3342519170442344,13.8318846822775,5.043517328341094,12,1.535848214034529e-15,1.6444855613669952e-15,5.551115123125783e-14,0.0,0.012822854928016048,1.0470806350001534,0.012822854928016048
0.4323435042043147,110.13364915074911,-10.664092504575692,108.72579139281906,-11.526001485271166,86.4883505068923,-2.4260162151332665,22.23744088592676,-9.0999852701379,13.374860890052968,4.845286814024956,95.3509305027661,-16.371288299296126,108.72579139281906,-11.526001485271166,1.407857757930046,0.8619089806954756,0.0,0.0,41.33538593298953,-14.689368809175788,32.2443118549896,-3.960962468342725,21.77123271478699,2.2790429782223818,13.374860890052968,4.845286814024956,11,1.4211623386033283e-15,1.3987771741501899e-15,4.163336342344337e-14,0.0,0.11869268559630552,1.033348816818335,0.11869268559630552
0.4354538891266479,110.07552027148648,-10.780871613732028,108.45093592930603,-11.75845229590928,88.62523556694043,-3.513977948022827,19.825700362365595,-8.244474347886452,12.766114072528353,4.579624927101784,95.68482185677769,-16.338077223011073,108.45093592930603,-11.75845229590928,1.62458434218046,0.9775806821772511,0.0,0.0,41.379204309785216,-14.70687677144365,32.25735736761301,-3.964473257688498,22.048260179379458,2.3332728061210783,12.766114072528353,4.579624927101784,11,1.697942777075156e-15,2.1542725559214575e-15,8.326672684688674e-14,0.0,0.10496086741448729,1.019616998636517,0.10496086741448729
0.4385642740489811,110.19347245642447,-10.739780072944331,108.33359334485584,-11.83947863929707,90.96119475743225,-4.499564680277231,17.37239858742359,-7.339913959019839,12.84773367704139,4.556336456075885,95.48585966781445,-16.39581509537296,108.33359334485584,-11.83947863929707,1.8598791115686373,1.099698566352739,0.0,0.0,41.42051651430468,-14.723154046844316,32.260022242590594,-3.9677273139908955,21.805320910919185,2.2950662654622533,12.84773367704139,4.556336456075885,11,2.435322097545242e-15,1.2548477246939505e-15,5.551115123125783e-14,0.0,0.09122904923266928,1.0058851804546989,0.09122904923266928
0.4416746589713143,110.33311740254379,-10.783620267565437,108.21851174638405,-12.011804848353897,93.34139406101808,-5.626710073903318,14.877117685365974,-6.385094774450579,12.466243287669432,4.358041848540645,95.75226845871461,-16.369846696894538,108.21851174638405,-12.011804848353897,2.1146056561597355,1.2281845807884597,0.0,0.0,41.45932096410131,-14.738195941949087,32.265650469729984,-3.9708482378873935,22.027297024883318,2.339197482941943,12.466243287669432,4.358041848540645,11,1.1306034296028668e-15,2.3708662639223656e-15,5.551115123125783e-14,0.0,0.07749723105085105,0.9921533622728805,0.07749723105085105
0.4447850438936475,109.98210697185883,-10.92562013941572,107.59240870774465,-12.288586014965972,95.25282991782824,-6.909738409104918,12.339578789916416,-5.378847605861054,11.911118899576019,4.124058779837091,95.68128980816866,-16.412644794803064,107.59240870774465,-12.288586014965972,2.3896982641141773,1.3629658755502516,0.0,0.0,41.49574534936016,-14.752055900248907,32.28376169569225,-3.9741236840737457,21.901782763116234,2.313534789519588,11.911118899576019,4.124058779837091,11,1.1574228160223421e-15,1.3380458403464027e-15,5.551115123125783e-14,0.0,0.06376541286903303,0.9784215440910624,0.06376541286903303
0.4478954288159807,109.32803850425117,-11.262235212583429,108.4288983537627,-11.813300627444761,98.66927145313018,-7.4932604632532005,9.759626900632526,-4.3200401641915605,12.86321606391613,4.648916768323569,95.56568228984659,-16.462217395768334,108.4288983537627,-11.813300627444761,0.8991401504884564,0.5510654148613316,0.0,0.0,41.53001208476425,-14.764837435902201,32.31928663740164,-3.9778982460214163,21.716383567680708,2.2805182861552797,12.86321606391613,4.648916768323569,12,2.221150171946736e-15,1.1612243564953657e-15,5.551115123125783e-14,0.0,0.05003359468721458,1.0438580161795987,0.05003359468721458
0.4510058137383139,109.03247796832248,-11.35417325058047,107.95277778282652,-12.004647074654407,100.81557453648739,-8.797079242200276,7.137203246339126,-3.2075678324541315,12.555444944168107,4.512971044484057,95.3973328386584,-16.51761811913846,107.95277778282652,-12.004647074654407,1.079700185495973,0.6504738240739376,0.0,0.0,41.56239198297013,-14.776679635951332,32.36974196755094,-3.982468911316774,21.465198888137337,2.241530428129641,12.555444944168107,4.512971044484057,12,1.2374264744249337e-15,1.3552294635103403e-15,5.551115123125783e-14,0.0,0.036301776505396566,1.0301261979977807,0.036301776505396566
0.4541161986606471,109.88529754891198,-11.31905659669164,108.60549960904966,-12.076751359457532,104.13319049030754,-10.036411525973527,4.472309118742118,-2.040339833484005,12.414214249460663,4.402012110181149,96.19128535958902,-16.47876346963869,108.60549960904966,-12.076751359457532,1.2797979398623245,0.7576947627658914,0.0,0.0,41.59315184937732,-14.787738295758544,32.45127771332075,-3.9882056230027345,22.146855796890947,2.2971804491225907,12.414214249460663,4.402012110181149,12,1.1246418234218811e-15,9.934567475369486e-16,5.551115123125783e-14,0.0,0.022569958323578332,1.0163943798159623,0.022569958323578332
0.4572265835829803,109.50199575582329,-11.443350712928087,108.00160221130966,-12.316032099024994,106.23663687140558,-11.498769726878976,1.76496533990408,-0.8172623721460184,11.96696550391561,4.216696154571943,96.03463670739404,-16.53272825359693,108.00160221130966,-12.316032099024994,1.5003935445136243,0.8726813860969066,0.0,0.0,41.6225945550501,-14.798186876490629,32.53386568939158,-3.995081012293232,21.878176462952364,2.260539635186932,11.96696550391561,4.216696154571943,12,1.2005761969193912e-15,1.6178635078342125e-15,5.551115123125783e-14,0.0,0.008838140141760098,1.0026625616341442,0.008838140141760098
0.46033696850531347,109.84498548255225,-11.309836583552226,108.10246239925371,-12.30522828112153,87.56432286777401,-3.8025059561520465,20.5381395314797,-8.502722324969483,11.94615687031875,4.150263881838471,96.15630552893496,-16.455492162960006,108.10246239925371,-12.30522828112153,1.7425230832985295,0.9953916975693037,0.0,0.0,41.520960798313695,-14.751703351161428,32.57382864901847,-4.001765315424441,22.061516081602797,2.297976503625863,11.94615687031875,4.150263881838471,11,1.2446069337375856e-15,2.7803152600902593e-15,4.163336342344337e-14,0.0,0.10874284975841064,0.9889307434523261,0.10874284975841064
0.4634473534276467,109.67073159130027,-11.430452286431606,107.66343158130293,-12.556237896368103,89.56797065975269,-4.944379687654575,18.09546092155024,-7.611858208713528,11.539672665836337,3.968228789832991,96.12375891546658,-16.52446668620109,107.66343158130293,-12.556237896368103,2.007300009997343,1.1257856099364971,0.0,0.0,41.58536800048677,-14.775838598211072,32.66323232600136,-4.009537559001272,21.87515858897845,2.2609094710112547,11.539672665836337,3.968228789832991,11,1.175957975188341e-15,1.3283482104471024e-15,8.326672684688674e-14,0.0,0.09501103157659241,0.9751989252705078,0.09501103157659241
0.4665577383499799,109.50803490964319,-11.492348447334924,107.21211830424863,-12.756170413178708,91.60206028819937,-6.085502755310159,15.610058016049265,-6.670667657868549,11.044426804583232,3.751692970431751,96.16769149966538,-16.50786338361045,107.21211830424863,-12.756170413178708,2.2959166053945466,1.2638219658437833,0.0,0.0,41.64849728810914,-14.799243976064599,32.608565766521224,-4.013639494895118,21.910628445035016,2.305020087349268,11.044426804583232,3.751692970431751,11,1.6193685094098275e-15,1.5460709915617364e-15,5.551115123125783e-14,0.0,0.0812792133947744,0.9614671070886898,0.0812792133947744
0.4696681232723131,108.9921039287234,-11.628106836698981,106.38245846323765,-13.037562349061666,93.30109187194651,-7.3597182393321035,13.081366591291143,-5.677844109729563,10.511674781935767,3.5344268846390365,95.87078368130189,-16.571989233700698,106.38245846323765,-13.037562349061666,2.609645465485738,1.4094555123626846,0.0,0.0,41.710136827863295,-14.8218568879162,32.555190119936675,-4.016759067471984,21.605456733501914,2.266626721687489,10.511674781935767,3.5344268846390365,11,1.191268302456721e-15,1.6054378264852264e-15,5.551115123125783e-14,0.0,0.06754739521295616,0.9477352889068714,0.06754739521295616
0.4727785081946463,108.28283026022986,-11.961233165410606,107.320428588735,-12.523443435564403,96.81150241769544,-7.891339957047066,10.508926171039562,-4.632103478517337,11.691868551786044,4.118779957113804,95.62856003694897,-16.642223392678215,107.320428588735,-12.523443435564403,0.9624016714948624,0.5622102701537969,0.0,0.0,41.77019146316527,-14.84366174236506,32.54381736488724,-4.020347008028411,21.314551208896464,2.2217853577152518,11.691868551786044,4.118779957113804,12,1.1826845161645858e-15,1.6225077449913563e-15,5.551115123125783e-14,0.0,0.05381557703113793,1.0152120448436484,0.05381557703113793
0.4758888931169795,109.36589217129476,-11.877908832379749,108.19988093314444,-12.547030573869556,100.30750216363846,-9.014844627548655,7.8923787695059815,-3.532185946320901,11.636591589474246,4.056055711905064,96.5632893436702,-16.60308628577463,108.19988093314444,-12.547030573869556,1.166011238150322,0.6691217414898077,0.0,0.0,41.82866510505172,-14.864688852463603,32.63293817664463,-4.026221514082279,22.10168606197386,2.2878240807712498,11.636591589474246,4.056055711905064,12,1.2147899560951742e-15,1.9777993597706837e-15,5.551115123125783e-14,0.0,0.040083758849319695,1.00148022666183,0.040083758849319695
0.4789992780393127,109.0843839846286,-12.00477513147559,107.690939580919,-12.790049319049395,102.45948542527847,-10.413197702522545,5.23145415564052,-2.3768516165268494,11.22280375924272,3.8821123013710697,96.46813582167627,-16.67216162042046,107.690939580919,-12.790049319049395,1.3934444037096099,0.7852741875738043,0.0,0.0,41.88562621250026,-14.885005429560202,32.75506176831304,-4.034664862919239,21.82744784086296,2.247508672058988,11.22280375924272,3.8821123013710697,12,1.2718068265183326e-15,1.443942426982671e-15,5.551115123125783e-14,0.0,0.026351940667501683,0.9877484084800119,0.026351940667501683
0.48210966296164587,108.71001802956407,-12.150099488191312,107.06399773676863,-13.060769820136535,104.5380528697408,-11.89589875296592,2.5259448670278317,-1.1648710671706155,10.749481573796283,3.688104018704637,96.31451616297234,-16.748873838841178,107.06399773676863,-13.060769820136535,1.6460202927954481,0.9106703319452232,0.0,0.0,41.94221174696953,-14.904950237363508,32.8988252726048,-4.045480991318728,21.473479143398016,2.2015573898410583,10.749481573796283,3.688104018704637,12,2.3864298300663022e-15,2.3443739041251382e-15,5.551115123125783e-14,0.0,0.01262012248568345,0.9740165902981939,0.01262012248568345
0.4852200478839791,109.66124450932618,-11.945881608407465,107.73609935338044,-12.991190005229022,87.48609828048342,-4.585589282016656,20.25000107289702,-8.405600723212366,10.916304336612322,3.691088665916416,96.81979501676813,-16.68227867114544,107.73609935338044,-12.991190005229022,1.9251451559457387,1.0453083968215575,0.0,0.0,41.8742056709348,-14.870559861084471,33.04252426208296,-4.057720366236843,21.903065083750363,2.2460015561758766,10.916304336612322,3.691088665916416,11,1.1819571253612195e-15,1.0047470884426639e-15,5.551115123125783e-14,0.0,0.1064186125147013,0.9602847721163755,0.1064186125147013
0.4883304328063123,109.96223367271229,-11.995114704870852,107.72991967009305,-13.18429354117604,89.93911989742237,-5.680910222677078,17.79079977267068,-7.503383318498962,10.451984858438196,3.4907799625510103,97.27793481165486,-16.67507350372704,107.72991967009305,-13.18429354117604,2.232314002619239,1.189178836305187,0.0,0.0,41.963985082098596,-14.903448155457678,33.17372845327432,-4.070705204968437,22.14022127628195,2.299079856699068,10.451984858438196,3.4907799625510103,11,1.2935104105207954e-15,1.1111100801558886e-15,5.551115123125783e-14,0.0,0.0926867943328833,0.9465529539345574,0.0926867943328833
0.4914408177286455,109.69254247710359,-12.120345328085774,107.12343026796225,-13.462606320998866,91.83630261950857,-6.912860393160081,15.287127648453676,-6.549745927838785,9.994692436206696,3.30267630208657,97.12873783175556,-16.765282623085437,107.12343026796225,-13.462606320998866,2.5691122091413434,1.342260992913091,0.0,0.0,42.052595544628865,-14.935722757305996,33.280260104504336,-4.083801950092132,21.795882182622364,2.2542420843126845,9.994692436206696,3.30267630208657,11,1.3576609950045536e-15,1.464270215459463e-15,5.551115123125783e-14,0.0,0.07895497615106506,0.9328211357527392,0.07895497615106506
0.4945512026509787,109.83331037211406,-12.189148364842156,106.89609328369659,-13.693668039343294,94.15775955211478,-8.150357470995381,12.738333731581804,-5.543310568347913,9.749397476125967,3.171416842478659,97.14669580757062,-16.865084881821943,106.89609328369659,-13.693668039343294,2.9372170884174653,1.504519674501138,0.0,0.0,42.13971137746691,-14.967283325316016,33.53896606874083,-4.10427409401998,21.468018361362883,2.206472537514051,9.749397476125967,3.171416842478659,11,1.3821508131563554e-15,1.3819683620102532e-15,5.551115123125783e-14,0.0,0.06522315796924705,0.919089317570921,0.06522315796924705
0.4976615875733119,108.96578418700152,-12.477712026586135,107.9146384609932,-13.064875858176507,97.77081415697067,-8.58217645754764,10.14382430402253,-4.482699400628867,11.046860904038692,3.786828893153956,96.86777755695451,-16.851704751330455,107.9146384609932,-13.064875858176507,1.0511457260083181,0.5871638315903719,0.0,0.0,42.22507367358666,-14.998052884628445,33.19140149507916,-4.097542821211032,21.45130238828868,2.2438909545090233,11.046860904038692,3.786828893153956,12,2.0156188347579507e-15,2.313505586764018e-15,5.551115123125783e-14,0.0,0.05149133978742859,0.9896750838200095,0.05149133978742859
0.5007719724956451,109.72098432569943,-12.549611117454441,108.43441396450915,-13.25519620782017,100.93133125261228,-9.88865165048582,7.503082711896866,-3.3665445573343504,10.7253166563889,3.654502118969323,97.70909730812025,-16.909698326789496,108.43441396450915,-13.25519620782017,1.2865703611902812,0.7055850903657284,0.0,0.0,42.308501067049846,-15.027987384496605,33.55100179048126,-4.119014160770998,21.84959445058915,2.2373032184781056,10.7253166563889,3.654502118969323,12,1.3071218964723758e-15,1.7418537047678753e-15,5.551115123125783e-14,0.0,0.03775952160561058,0.9759432656381914,0.03775952160561058
0.5038823574179783,110.11465198748371,-12.62244900904597,108.56317855570909,-13.45756027688848,103.7475021212093,-11.264067483781446,4.815676434499792,-2.1934927931070334,10.285585521381964,3.4765579924987406,98.27759303432713,-16.934118269387216,108.56317855570909,-13.45756027688848,1.5514734317746286,0.8351112678425079,0.0,0.0,42.391565627918624,-15.057479551005702,33.7164149112407,-4.135212570842414,22.169612495167808,2.2585738524608967,10.285585521381964,3.4765579924987406,12,1.197929971702753e-15,1.2039379645773512e-15,5.551115123125783e-14,0.0,0.024027703423792568,0.9622114474563733,0.024027703423792568
0.5069927423403114,110.52339895042316,-12.576149082924092,108.67579747306497,-13.551930746693046,106.59454724684488,-12.589726804564215,2.0812502262200923,-0.9622039421288306,10.362417059821206,3.4473131386358933,98.31338041324376,-16.999243885328937,108.67579747306497,-13.551930746693046,1.8476014773581788,0.9757816637689548,0.0,0.0,42.47738489590997,-15.08734774399878,33.913483550808664,-4.155012818362033,21.922511966525143,2.2431166770318747,10.362417059821206,3.4473131386358933,12,1.165722827509489e-15,1.4985018886992357e-15,1.1102230246251565e-13,0.0,0.010295885241974334,0.9484796292745552,0.010295885241974334
0.5101031272626447,110.93396486442131,-12.515187650023897,108.75716443013596,-13.642807813222497,89.79864111440415,-5.696995950987535,18.95852331573181,-7.945811862234962,10.037849200306427,3.307117320260052,98.71931522982953,-16.94992513348255,108.75716443013596,-13.642807813222497,2.1768004342853557,1.1276201631985996,0.0,0.0,42.46576950835903,-15.07411337875567,34.06980850462841,-4.1742444401090335,22.183737216842086,2.2984326853821564,10.037849200306427,3.307117320260052,11,1.3041401956329347e-15,1.5413304678249192e-15,1.1102230246251565e-13,0.0,0.09807486853460134,0.9347478110927367,0.09807486853460134
0.5132135121849779,110.61995476447285,-12.66633401046714,108.07893772692944,-13.956965435104742,91.62929777231749,-6.952664690917004,16.449639954611953,-7.004300744187738,9.510978029495256,3.096393555666996,98.56795969743418,-17.053358990771738,108.07893772692944,-13.956965435104742,2.5410170375434133,1.2906314246376032,0.0,0.0,42.581628944568166,-15.115385494447825,34.17167325589939,-4.191889584354218,21.814657496966625,2.253916088030298,9.510978029495256,3.096393555666996,11,8.792443882482823e-16,1.5547280747599483e-15,1.1102230246251565e-13,0.0,0.08434305035278333,0.9210159929109186,0.08434305035278333
0.5163238971073111,110.67785444347325,-12.681585008425767,107.73555434057573,-14.14638197999917,93.84112618186207,-8.136817596085876,13.894428158713666,-6.009564383913293,9.382449967671452,3.0068475534641452,98.35310437290428,-17.15322953346331,107.73555434057573,-14.14638197999917,2.942300102897525,1.4647969715734028,0.0,0.0,42.69729155160661,-15.156398083695962,34.221931837794756,-4.207225299531116,21.433880983502906,2.210393849763772,9.382449967671452,3.0068475534641452,11,1.7571515130513835e-15,2.2821643470237812e-15,1.1102230246251565e-13,0.0,0.07061123217096532,0.9072841747291005,0.07061123217096532
0.5194342820296443,112.09827149229135,-12.683208399939616,108.71546982055102,-14.333279589004235,97.4232426631715,-9.37310081569288,11.292227157379529,-4.960178773311355,8.913708831681351,2.8112411096698455,99.80176098886966,-17.14452069867407,108.71546982055102,-14.333279589004235,3.382801671740325,1.6500711890646187,0.0,0.0,42.81197235569047,-15.196948252710602,34.683839757946316,-4.238755190034684,22.30594887523287,2.2911827440712145,8.913708831681351,2.8112411096698455,11,1.417471191379907e-15,1.2787896778996301e-15,5.551115123125783e-14,0.0,0.05687941398914731,0.8935523565472825,0.05687941398914731
0.5225446669519774,110.58977638203135,-13.10482197006662,109.42491324836038,-13.730461847781896,100.78252182902008,-9.875760883645476,8.6423914193403,-3.85470096413642,10.333856832057151,3.4793517978666415,99.09105641630323,-17.20981364564854,109.42491324836038,-13.730461847781896,1.1648631336709685,0.625639877715276,0.0,0.0,42.9251701814328,-15.236893817354623,34.28198512676181,-4.220408961002528,21.88390110810863,2.2474891327086084,10.333856832057151,3.4793517978666415,12,1.3210676961912474e-15,1.1124756967604284e-15,1.1102230246251565e-13,0.0,0.043147595807329076,0.9681998683375872,0.043147595807329076
0.5256550518743107,111.28760576977561,-13.142669675878441,109.84592090938199,-13.90259424279067,103.90159517675902,-11.21090971201398,5.944325732622971,-2.6916845307766906,10.053402170152888,3.36367599695237,99.79251873922911,-17.266270239743047,109.84592090938199,-13.90259424279067,1.4416848603936268,0.7599245669122281,0.0,0.0,43.03986975618744,-15.276936795372118,34.549840431072134,-4.245162989538599,22.202808551969518,2.255829545167673,10.053402170152888,3.36367599695237,12,1.5580717429155066e-15,1.170869025049068e-15,1.1102230246251565e-13,0.0,0.02941577762551062,0.9544680501557686,0.02941577762551062
0.5287654367966439,111.50265236693119,-13.154336515574665,109.74741123869275,-14.062052036491842,106.54990202562995,-12.59236097546514,3.1975092130628013,-1.469691061026701,9.866150987905897,3.2560982460952355,99.88126025078685,-17.31815028258708,109.74741123869275,-14.062052036491842,1.755241128238435,0.9077155209171773,0.0,0.0,43.157491131467765,-15.317473324355916,34.680279809602915,-4.261926422011321,22.04348930971618,2.261249463780155,9.866150987905897,3.2560982460952355,12,1.5406146710260203e-15,1.3444937530600847e-15,5.551115123125783e-14,0.0,0.015683959443692386,0.9407362319739505,0.015683959443692386
0.5318758217189771,112.30940677245147,-13.081858306238896,110.20163123806164,-14.150932272071678,109.80012968180841,-13.96363813455499,0.4015015562532227,-0.18729413751668744,9.752192685143044,3.178222573867485,100.4494385529186,-17.32915484593916,110.20163123806164,-14.150932272071678,2.1077755343898334,1.069073965832783,0.0,0.0,43.27746763413565,-15.358454355551995,34.81297347535316,-4.282535616431323,22.358997443429804,2.311835126044148,9.752192685143044,3.178222573867485,12,1.2299478123881494e-15,1.6976416377675834e-15,1.1102230246251565e-13,0.0,0.0019521412618743739,0.9270044137921325,0.0019521412618743739
0.5349862066413102,112.49302009693731,-13.131450697565402,109.9913784948179,-14.37548294441357,93.40233214489193,-7.309786307080387,16.589046349925965,-7.065696637333183,9.42740389032305,3.0390407757166606,100.56397460449485,-17.414523720130227,109.9913784948179,-14.37548294441357,2.501641602119416,1.2440322468481666,0.0,0.0,43.30538733583198,-15.358670122410789,35.24845432486526,-4.318937553054091,22.010132943797615,2.2630839553346505,9.42740389032305,3.0390407757166606,11,1.2880321893008266e-15,1.563044605002877e-15,6.938893903907228e-14,0.0,0.08402290696576831,0.9132725956103145,0.08402290696576831
0.5380965915636434,112.20526900750795,-13.125513962778717,109.26596569649246,-14.558103294830524,95.25765296485534,-8.497398772480416,14.008312731637119,-6.0607045223501075,8.963028162268158,2.8499053218081123,100.3029375342243,-17.408008616638636,109.26596569649246,-14.558103294830524,2.9393033110154865,1.4325893320518064,0.0,0.0,43.454903317974306,-15.411975076813459,34.742356979018865,-4.305250264243666,22.105677237231138,2.30921672441848,8.963028162268158,2.8499053218081123,11,1.416360211932845e-15,1.2975977916056885e-15,8.326672684688674e-14,0.0,0.0702910887839503,0.8995407774284963,0.0702910887839503
0.5412069764859767,113.4926238709742,-13.084440177871409,110.06928848716491,-14.719146402973543,98.69220781326953,-9.720061569079313,11.377080673895378,-4.99908483389423,8.830206477334533,2.7571158621919087,101.23908200983038,-17.476262265165452,110.06928848716491,-14.719146402973543,3.423335383809295,1.634706225102134,0.0,0.0,43.599840314101584,-15.463635047432335,35.135944120413384,-4.325993735669634,22.503297575315422,2.3133665179365135,8.830206477334533,2.7571158621919087,11,1.0365058858856103e-15,1.3806080386174587e-15,5.551115123125783e-14,0.0,0.05655927060213162,0.8858089592466778,0.05655927060213162
0.5443173614083099,114.27272793517287,-13.10233288788979,110.31630462595108,-14.9526341827411,101.62128702241664,-11.073152299121375,8.695017603534438,-3.879481883619725,8.370447686754515,2.5755408323610194,101.94585693919656,-17.52817501510211,110.31630462595108,-14.9526341827411,3.9564233092217886,1.8503012948513087,0.0,0.0,43.742119698759296,-15.51410620241122,35.31579840073989,-4.344373862564353,22.887938839697377,2.3303050498734557,8.370447686754515,2.5755408323610194,11,1.0492440279383595e-15,1.1973760153606618e-15,5.551115123125783e-14,0.0,0.042827452420313605,0.8720771410648597,0.042827452420313605
0.5474277463306431,113.21867297230519,-13.63653681051507,111.91640253851756,-14.314329889285602,105.95462252471461,-11.613815549257573,5.961780013802951,-2.700514340028029,10.1086706039086,3.34739836348192,101.80773193460895,-17.66172825276752,111.91640253851756,-14.314329889285602,1.3022704337876292,0.6777930787705326,0.0,0.0,43.885776549451556,-15.56440084423475,35.517380275046975,-4.367703142576596,22.404575110110425,2.2703757340438244,10.1086706039086,3.34739836348192,12,2.0499242967289804e-15,1.8905532263186407e-15,5.551115123125783e-14,0.0,0.029095634238495593,0.9515875976588724,0.029095634238495593
0.5505381312529762,114.39652063939218,-13.511675164229171,112.76582108962698,-14.344479229994498,109.58877100910739,-12.88368851206485,3.1770500805195923,-1.4607907179296475,9.960435485195552,3.2664883397256705,102.80538560443144,-17.610967569720174,112.76582108962698,-14.344479229994498,1.6306995497651937,0.8328040657653276,0.0,0.0,44.03155697123299,-15.614798579132223,35.66338201495573,-4.3896740361821855,23.11044661824272,2.39350504559423,9.960435485195552,3.2664883397256705,12,1.695693352866373e-15,1.7210395101754314e-15,1.1102230246251565e-13,0.0,0.015363816056677582,0.9378557794770541,0.015363816056677582
0.5536485161753095,114.56393947716,-13.519037383284248,112.55903206407412,-14.523418768631736,112.21847005833918,-14.364497487344742,0.3405620057349381,-0.15892128128699312,9.849416097197786,3.19073109975732,102.70961596687633,-17.71414986838906,112.55903206407412,-14.523418768631736,2.0049074130858875,1.0043813853474872,0.0,0.0,44.178543076574854,-15.665185097063635,35.741794965483564,-4.407873634487384,22.789277924817917,2.3589088631619557,9.849416097197786,3.19073109975732,12,1.0487478277398312e-15,1.3059092232356287e-15,1.1102230246251565e-13,0.0,0.0016319978748589037,0.9241239612952357,0.0016319978748589037
0.5567589010976427,114.81499427700989,-13.583510112994773,112.3873045853214,-14.776099196069886,96.57870451287175,-8.0006183148802,15.80860007244965,-6.7754808811896865,9.508634987638432,3.045403309980628,102.87866959768297,-17.82150250605051,112.3873045853214,-14.776099196069886,2.4276896916884834,1.1925890830751122,0.0,0.0,44.243481588660664,-15.67923373264784,36.25213251963054,-4.4526911019907,22.38305548939178,2.3104223285880163,9.508634987638432,3.045403309980628,11,1.097162611346025e-15,1.7224046752408172e-15,1.1102230246251565e-13,0.0,0.07851879783069204,0.9103921431134175,0.07851879783069204
0.5598692860199759,115.74428382518077,-13.501984374944023,112.84232701253434,-14.89942995474987,99.67472511958134,-9.167079835657013,13.167601892953002,-5.732350119092857,9.14542209156524,2.8942435782316904,103.69690492096909,-17.793673532981558,112.84232701253434,-14.89942995474987,2.9019568126464352,1.3974455798058463,0.0,0.0,44.413497025712964,-15.73963790790335,36.11185261712635,-4.435536027673059,23.17155527812978,2.381500402594856,9.14542209156524,2.8942435782316904,11,1.7435131666829823e-15,1.1771246609354055e-15,1.1102230246251565e-13,0.0,0.06478697964887381,0.8966603249315994,0.06478697964887381
0.562979670942309,116.98797042804514,-13.398492309774827,113.55723762100264,-15.017410777055986,103.082985510663,-10.386719323937108,10.474252110339648,-4.630691453118878,8.950517134647276,2.780646810613786,104.60672048635536,-17.798057587669764,113.55723762100264,-15.017410777055986,3.430732807042498,1.6189184672811594,0.0,0.0,44.576525881095755,-15.797653215152717,36.20182087795148,-4.443961010824552,23.82837372730812,2.443556638307509,8.950517134647276,2.780646810613786,11,1.0989377438035119e-15,1.9128223276433496e-15,5.551115123125783e-14,0.0,0.0510551614670558,0.8829285067497814,0.0510551614670558
0.5660900558646422,116.98950640912075,-13.463601736009192,112.97235263832052,-15.320520988718386,105.24380490642531,-11.85125276883955,7.728547731895205,-3.4692682198788347,8.49093184860847,2.59925933680368,104.48142078971205,-17.91978032552207,112.97235263832052,-15.320520988718386,4.0171537708002365,1.8569192527091931,0.0,0.0,44.73529849989936,-15.85398309268259,36.355755707093415,-4.460725453767379,23.390366582719277,2.3949282209279,8.49093184860847,2.59925933680368,11,1.1164319619265075e-15,1.893188769227051e-15,8.326672684688674e-14,0.0,0.03732334328523779,0.8691966885679634,0.03732334328523779
0.5692004407869755,116.98325118311024,-13.524289395998998,112.3187852619356,-15.63558746426012,107.38841455043303,-13.388811308080946,4.930370711502576,-2.2467761561791733,8.048036550513816,2.425794760657276,104.27074871142177,-18.061382224917395,112.3187852619356,-15.63558746426012,4.664465921174645,2.11129806826112,0.0,0.0,44.891988670358444,-15.909235690999306,36.535556933963235,-4.485692813574092,22.843203107100088,2.3335462796560122,8.048036550513816,2.425794760657276,11,1.4305655782020396e-15,1.2413794167476724e-15,6.938893903907228e-14,0.0,0.02359152510341911,0.8554648703861447,0.02359152510341911
0.5723108257093087,117.20040114689237,-13.894052714345735,115.73947690425642,-14.638164062270292,113.65993808040594,-13.676301074266277,2.079538823850484,-0.9618629880040146,10.276088007567575,3.3567425647327074,105.46338889668885,-17.994906627003004,115.73947690425642,-14.638164062270292,1.4609242426359594,0.7441113479245571,0.0,0.0,45.04646056918448,-15.963466494114174,36.65617528166605,-4.510609322854217,23.760753045838335,2.479169189965381,10.276088007567575,3.3567425647327074,12,1.2397382960093568e-15,1.8365903087183697e-15,1.1102230246251565e-13,0.0,0.009859706921601097,0.9404580438661044,0.009859706921601097
0.5754212106316419,118.69482256335938,-13.921317646796256,116.84350078973132,-14.846638861244656,100.04242531669725,-7.677267724406654,16.801075473034075,-7.169371136838002,9.974540718714158,3.2413920205589584,106.86896007101718,-18.08803088180361,116.84350078973132,-14.846638861244656,1.8513217736280516,0.9253212144484002,0.0,0.0,45.101179423669194,-15.974073501766458,37.5890706253856,-4.574893049307292,24.178710021962388,2.46093566927013,9.974540718714158,3.2413920205589584,11,1.0299881234213826e-15,1.989631097979587e-15,1.1102230246251565e-13,0.0,0.08228019682843968,0.9267262256842863,0.08228019682843968
0.578531595553975,118.31569043589819,-13.860968891628776,116.0172817117807,-14.987917704272853,101.88470239183873,-8.861890751095878,14.132579319941968,-6.126026953176975,9.941609811769132,3.185217671248732,106.07567190001157,-18.17313537552159,116.0172817117807,-14.987917704272853,2.2984087241174995,1.1269488126440779,0.0,0.0,45.27711105694746,-16.03826180375643,37.10366047118123,-4.552417459853423,23.694900371882873,2.417543888088275,9.941609811769132,3.185217671248732,11,1.355771388405463e-15,1.43791761938514e-15,1.6653345369377348e-13,0.0,0.06854837864662144,0.9129944075024683,0.06854837864662144
0.5816419804763082,118.93975739161843,-13.793308440896254,116.13420494633863,-15.14234296131172,104.72483153891939,-10.119536421215109,11.409373407419238,-5.02280654009661,9.598507365594442,3.038284520618138,106.5356975807442,-18.180627481929868,116.13420494633863,-15.14234296131172,2.805552445279802,1.349034520415466,0.0,0.0,45.44557991366071,-16.09941011219002,37.180887857861535,-4.566559395934817,23.90922980922194,2.4853420261949744,9.598507365594442,3.038284520618138,11,1.0924902542672365e-15,1.119989537951578e-15,1.1102230246251565e-13,0.0,0.05481656046480343,0.8992625893206503,0.05481656046480343
0.5847523653986415,120.52730376834347,-13.670424233809737,117.1510743873204,-15.261976912455118,108.51914084857872,-11.403311830435513,8.631933538741691,-3.8586650820196056,9.43768426673139,2.936618809344809,107.71339012058901,-18.19859572179992,117.1510743873204,-15.261976912455118,3.3762293810230672,1.5915526786453813,0.0,0.0,45.61398863142767,-16.15947538869142,37.36278503177806,-4.589165681619907,24.736616457383285,2.550045348511409,9.43768426673139,2.936618809344809,11,1.555854807799621e-15,1.041121144192991e-15,1.1102230246251565e-13,0.0,0.041084742282984754,0.8855307711388316,0.041084742282984754
0.5878627503209747,120.81734435730326,-13.68064096247302,116.8033230142988,-15.535046768219857,111.00280618649171,-12.902595331131067,5.800516827807087,-2.6324514370887897,9.113297574296062,2.7942879518862656,107.69002544000274,-18.329334720106132,116.8033230142988,-15.535046768219857,4.0140213430044565,1.8544058057468353,0.0,0.0,45.78491769707172,-16.219319282854627,37.56514646735996,-4.618920755195596,24.339961275571056,2.5089053179440963,9.113297574296062,2.7942879518862656,11,1.1990943754103027e-15,1.224099350428968e-15,1.1102230246251565e-13,0.0,0.027352924101166742,0.8717989529570136,0.027352924101166742
0.5909731352433079,121.53714832710541,-13.776911809381884,116.81453705677903,-15.91433065201074,113.89930813992494,-14.57139763734746,2.9152289168540904,-1.3429330146632807,8.613508424150178,2.600580012302431,108.20102863262885,-18.514910664313163,116.81453705677903,-15.91433065201074,4.722611270326379,2.1374188426288563,0.0,0.0,45.95695208024315,-16.278801843273534,38.40320867300679,-4.686902469812159,23.840867879378912,2.4507936487725317,8.613508424150178,2.600580012302431,11,2.0367949143309174e-15,1.117547083630268e-15,1.1102230246251565e-13,0.0,0.01362110591934873,0.8580671347751956,0.01362110591934873
0.594083520165641,122.76946124960222,-13.503449559993541,117.26368279031458,-15.943783012153823,100.08285163385268,-8.613793717294513,17.180831156461892,-7.32998929485931,8.229046896717142,2.438667872912214,109.03463589359744,-18.382450885066035,117.26368279031458,-15.943783012153823,5.5057784592876375,2.4403334521602824,0.0,0.0,46.067368000529626,-16.311082112749077,38.01630574880039,-4.684828541730489,24.950962144267418,2.613459769413529,8.229046896717142,2.438667872912214,10,1.7607996877624672e-15,1.4518048440796068e-15,1.1102230246251565e-13,0.0,0.08245957097155943,0.8443353165933775,0.08245957097155943
0.5971939050879742,122.09518846692397,-14.1967539904702,120.45826767819966,-15.021963571318508,106.00847875938912,-8.75967524209566,14.44978891881054,-6.262288329222848,10.612949060314818,3.4553616112195575,109.84531861788483,-18.477325182538053,120.45826767819966,-15.021963571318508,1.636920788724316,0.8252095808483095,0.0,0.0,46.24852075616705,-16.374872065084695,38.3216267816625,-4.693685826279731,25.275171080055287,2.591232708826359,10.612949060314818,3.4553616112195575,11,1.4338857680848673e-15,1.4188325393220103e-15,1.1102230246251565e-13,0.0,0.06872775278974119,0.935226429348923,0.06872775278974119
0.6003042900103075,122.42053591022753,-14.116853292602102,120.32152087028253,-15.155552396189186,108.65475636641439,-10.020452298919778,11.666764503868137,-5.135100097269408,10.67434776886845,3.4431535001191014,109.64717310141407,-18.598705896308275,120.32152087028253,-15.155552396189186,2.0990150399450047,1.0386991035870843,0.0,0.0,46.42345940394397,-16.436442201595263,38.47924102007111,-4.710934511856619,24.744472677398974,2.548670817143604,10.67434776886845,3.4431535001191014,11,1.2028621041612892e-15,2.281102243854098e-15,1.1102230246251565e-13,0.0,0.054995934607922736,0.9214946111671044,0.054995934607922736
