time_s,total_vertical_force_n,total_pitch_moment_nm,raw_bem_vertical_force_n,raw_bem_pitch_moment_nm,resolved_station_bem_vertical_force_n,resolved_station_bem_pitch_moment_nm,transom_extrapolation_vertical_force_n,transom_extrapolation_pitch_moment_nm,pre_chine_bem_vertical_force_n,pre_chine_bem_pitch_moment_nm,post_chine_bem_vertical_force_n,post_chine_bem_pitch_moment_nm,bem_vertical_force_n,bem_pitch_moment_nm,front_vertical_force_n,front_pitch_moment_nm,transom_vertical_force_n,transom_pitch_moment_nm,longitudinal_bin_aft_post_chine_vertical_force_n,longitudinal_bin_aft_post_chine_pitch_moment_nm,longitudinal_bin_middle_post_chine_vertical_force_n,longitudinal_bin_middle_post_chine_pitch_moment_nm,longitudinal_bin_forward_post_chine_vertical_force_n,longitudinal_bin_forward_post_chine_pitch_moment_nm,longitudinal_bin_pre_chine_vertical_force_n,longitudinal_bin_pre_chine_pitch_moment_nm,active_plane_count,potential_bvp_relative_residual,potential_bvp_condition_number,pressure_bvp_relative_residual,pressure_bvp_condition_number,free_surface_pressure_max_abs_pa,contact_constraint_max_abs_m,aftmost_resolved_station_x_m,foremost_resolved_station_x_m,transom_coverage_gap_m
0.0,294.64009905788845,-36.0305793396033,287.17429684375065,-40.983907540683816,287.17429684375065,-40.983907540683816,0.0,0.0,67.84657961852999,23.652769972719298,219.3277172252207,-64.63667751340319,287.17429684375065,-40.983907540683816,7.465802214137772,4.953328201080517,0.0,0.0,85.5641802719786,-47.64758377220783,70.8038762447991,-18.742065385809937,62.959660708442996,1.7529716446145969,67.84657961852999,23.652769972719298,11,1.1995856147431016e-15,963.6741823512789,2.166001872683946e-15,963.6741823512789,2.220446049250313e-13,2.7755575615628914e-16,0.0,1.3161740142073626,0.0
0.0014305431266172946,298.5016408949186,-33.61638226452974,290.00335320798956,-39.21157570568707,252.01407338487456,-15.045244815356966,37.989279823115,-24.1663308903301,71.11491833893616,24.584503792676244,218.88843486905338,-63.7960794983633,290.00335320798956,-39.21157570568707,8.498287686929007,5.595193441157325,0.0,0.0,84.62806667730659,-47.093426681817306,70.308954807872,-18.60876522182804,63.95141338387482,1.9061124052820162,71.11491833893616,24.584503792676244,10,1.1602286118833644e-15,977.5249162739887,1.367547703934722e-15,977.5249162739887,4.440892098500626e-13,0.0,0.12339131383194024,1.3079479266185665,0.12339131383194024
0.002861086253234589,295.5290794950817,-34.15229661879755,285.93896995278607,-40.41768797430174,250.50466594033443,-17.73483479293148,35.43430401245163,-22.682853181370263,67.31740409368987,23.240876221362115,218.6215658590962,-63.65856419566387,285.93896995278607,-40.41768797430174,9.590109542295636,6.265391355504195,0.0,0.0,84.36984147417027,-46.94720870639766,70.33986719516747,-18.609199575681874,63.91185718975845,1.897844086415681,67.31740409368987,23.240876221362115,10,1.1689136157131682e-15,892.6825492863107,1.6362174301610935e-15,892.6825492863107,2.220446049250313e-13,0.0,0.1151652262431444,1.2997218390297705,0.1151652262431444
0.004291629379851884,299.2432696613589,-32.05573194058402,288.50338833960495,-39.0178703183978,255.7924299612418,-17.947036634923762,32.71095837836316,-21.070833683474035,69.99578526702548,23.929271862996558,218.50760307257949,-62.94714218139438,288.50338833960495,-39.0178703183978,10.73988132175394,6.962138377813781,0.0,0.0,83.65056970726091,-46.54650483013212,69.80723910990393,-18.464210852072036,65.04979425541464,2.063573500809788,69.99578526702548,23.929271862996558,10,1.022663891827179e-15,906.5856283188189,1.7430111595035583e-15,906.5856283188189,2.220446049250313e-13,0.0,0.10693913865434834,1.2914957514409746,0.10693913865434834
0.005722172506469178,292.5948656163409,-33.37053699836378,280.64864889087414,-41.05421792878104,250.47075934453565,-21.493804279857358,30.17788954633849,-19.560413648923685,63.78049540091901,21.970359003884013,216.86815348995515,-63.024576932665084,280.64864889087414,-41.05421792878104,11.946216725466748,7.683680930417261,0.0,0.0,83.4141542440491,-46.41145417234008,69.84956974388392,-18.469488033788245,63.604429502022114,1.8563652734632683,63.78049540091901,21.970359003884013,10,1.5001489830230545e-15,827.7290419079296,1.1836963184712919e-15,827.7290419079296,1.1102230246251565e-13,0.0,0.09871305106555228,1.2832696638521786,0.09871305106555228
0.007152715633086473,295.89200494843794,-31.48156361534948,282.68427361621104,-39.90986000236552,255.1703193431275,-21.965277649774578,27.513954273083556,-17.944582352590942,65.99151071518529,22.466496917406673,216.69276290102576,-62.376356919772206,282.68427361621104,-39.90986000236552,13.207731332226906,8.428296387016042,0.0,0.0,82.74538143397608,-46.03848053972617,69.34723759934064,-18.333792095916266,64.60014386770904,1.9959157158702183,65.99151071518529,22.466496917406673,10,8.938843246702546e-16,833.9585065357451,1.290009309293245e-15,833.9585065357451,2.220446049250313e-13,0.0,0.09048696347675622,1.2750435762633825,0.09048696347675622
0.008583258759703769,289.54465779158045,-32.68755380517972,275.0216134973027,-41.88184776722596,249.9719308416235,-25.443378349895738,25.04968265567922,-16.438469417330225,60.54391862622873,20.788476716733733,214.477694871074,-62.6703244839597,275.0216134973027,-41.88184776722596,14.523044294277696,9.194293962046247,0.0,0.0,82.66988766456579,-45.99380441052538,69.46455955475679,-18.361470216904152,62.34324765175139,1.684950143469841,60.54391862622873,20.788476716733733,10,1.0177979647787114e-15,765.6345647007979,2.119852436124852e-15,765.6345647007979,2.220446049250313e-13,0.0,0.08226087588796038,1.2668174886745864,0.08226087588796038
0.010013801886321063,292.22201948700877,-30.96644537994054,276.33123948140985,-40.9464609069403,253.89455209792132,-26.131999133444282,22.436687383488533,-14.81446177349602,62.44652129434401,21.18445387315272,213.8847181870658,-62.13091478009299,276.33123948140985,-40.9464609069403,15.890780005598938,9.980015526999761,0.0,0.0,82.05711241631897,-45.65193321772893,68.99060094467,-18.234782783932697,62.83700482607681,1.7558012215686531,62.44652129434401,21.18445387315272,10,1.1507679656183724e-15,769.0387684405325,1.81224349096177e-15,769.0387684405325,2.220446049250313e-13,0.0,0.07403478829916432,1.2585914010857904,0.07403478829916432
0.011444345012938357,288.59564250948546,-31.713458161521263,271.2860727671378,-42.497294515642295,251.2773513541193,-29.204909761221217,20.008721413018492,-13.292384754421079,58.73477208052889,19.919192434323108,212.5513006866089,-62.416486949965375,271.2860727671378,-42.497294515642295,17.30956974234765,10.783836354121032,0.0,0.0,82.11451763562097,-45.68214167615092,69.16758100975991,-18.27982523035714,61.26920204122801,1.5454799565426782,58.73477208052889,19.919192434323108,10,1.0991611629733553e-15,707.933753667478,1.806350993827289e-15,707.933753667478,2.220446049250313e-13,0.0,0.06580870071036804,1.2503653134969945,0.06580870071036804
0.012874888139555651,291.2225783369675,-30.03855348026616,272.44452506276366,-41.64271926825808,255.01013340802302,-29.989781943550923,17.434391654740637,-11.652937324707153,60.610402384743566,20.295182805291574,211.8341226780201,-61.937902073549665,272.44452506276366,-41.64271926825808,18.778053274203867,11.604165787991915,0.0,0.0,81.55392666954526,-45.369423153590844,68.71842615787799,-18.161045374761695,61.56176985059683,1.5925664548028777,60.610402384743566,20.295182805291574,10,1.0286823572580283e-15,710.5636375855885,1.460594423673459e-15,710.5636375855885,2.220446049250313e-13,0.0,0.0575826131215722,1.2421392259081985,0.0575826131215722
0.014305431266172945,289.2386687477901,-30.563252353905774,268.9437883023569,-43.002700199511736,253.93073108117434,-32.907112513777975,15.01305722118255,-10.095587685733761,57.57492226244059,19.18561494928627,211.36886603991633,-62.188315148798054,268.9437883023569,-43.002700199511736,20.29488044543322,12.43944784560596,0.0,0.0,81.70871140399834,-45.454698646170385,68.93939152265483,-18.218410251789763,60.72076311326315,1.4847937491621082,57.57492226244059,19.18561494928627,10,1.3184485663384972e-15,654.5765621697328,1.1150632993157097e-15,654.5765621697328,1.1102230246251565e-13,0.0,0.04935652553277614,1.2339131383194024,0.04935652553277614
0.01573597439279024,292.09426346705106,-28.890326652491638,270.2355507425099,-42.17848839811231,257.76995821252285,-33.74518294717984,12.46559252998702,-8.433305450932465,59.45264222500499,19.552473168912535,210.7829085175049,-61.73096156702488,270.2355507425099,-42.17848839811231,21.85871272454121,13.288161745620668,0.0,0.0,81.19325612790792,-45.167334896009045,68.51792861267009,-18.107067600267563,61.07172377692689,1.543440929251723,59.45264222500499,19.552473168912535,10,1.239972352355558e-15,657.0650730582406,1.2250965946954746e-15,657.0650730582406,2.220446049250313e-13,0.0,0.0411304379439803,1.2256870507306064,0.0411304379439803
0.017166517519407537,290.9359085433739,-29.338443790395143,267.46768382191715,-43.487266157954565,257.43858927850033,-36.66139523290943,10.029094543416818,-6.8258709250451375,56.54125192365757,18.47333720749606,210.9264318982596,-61.96060336545064,267.46768382191715,-43.487266157954565,23.468224721456746,14.148822367559422,0.0,0.0,81.41724141733636,-45.29192581150862,68.77759256795939,-18.174055122310573,60.73159791296387,1.5053775683685515,56.54125192365757,18.47333720749606,10,1.0471142174055333e-15,605.5400767158328,1.3736832272421011e-15,605.5400767158328,2.220446049250313e-13,0.0,0.03290435035518402,1.2174609631418103,0.03290435035518402
0.01859706064602483,294.0614880452779,-27.667008386813734,268.93938237403376,-42.686989028627636,261.44096694238465,-37.5528677742073,7.498415431649107,-5.134121254420336,58.37170064640514,18.82225317447456,210.5676817276286,-61.509242203102204,268.93938237403376,-42.686989028627636,25.122105671244107,15.019980641813902,0.0,0.0,80.94003323876441,-45.0261643963851,68.38605882433382,-18.069864012291735,61.241589664530366,1.5867862055746258,58.37170064640514,18.82225317447456,10,1.5765225774161829e-15,608.0865685088517,1.1784923258805418e-15,608.0865685088517,2.220446049250313e-13,0.0,0.02467826276638818,1.2092348755530145,0.02467826276638818
0.020027603772642125,293.15466279102185,-28.126275833288005,266.3356019076137,-44.02649970466379,261.30430118680255,-40.56099610895009,5.031300720811146,-3.465503595713699,55.34486410663838,17.719300266446673,210.99073780097532,-61.74579997111047,266.3356019076137,-44.02649970466379,26.819060883408152,15.900223871375788,0.0,0.0,81.21491535125814,-45.179561031947586,68.66929970959495,-18.143153010961534,61.106522740122244,1.5769140717986474,55.34486410663838,17.719300266446673,10,1.4156384991628978e-15,560.7841267498895,1.4427490758012845e-15,560.7841267498895,2.220446049250313e-13,0.0,0.01645217517759212,1.2010087879642184,0.01645217517759212
0.021458146899259418,296.49045264731956,-26.468595768691216,267.93263949140066,-43.25677175498987,265.4236746752906,-41.51833340026795,2.5089648161100513,-1.7384383547219215,57.08531097879817,18.04233167955458,210.84732851260247,-61.299103434544406,267.93263949140066,-43.25677175498987,28.557813155918907,16.788175986298654,0.0,0.0,80.77333369174386,-44.93350334128029,68.29933810303199,-18.043830054961365,61.77465671782664,1.6782299616972196,57.08531097879817,18.04233167955458,10,1.0710418302153087e-15,563.4567708668523,1.306673477171652e-15,563.4567708668523,1.1102230246251565e-13,0.0,0.00822608758879606,1.1927827003754223,0.00822608758879606
0.022888690025876714,287.05763040156467,-32.35082335130138,278.1976363094355,-38.27944281589896,278.1976363094355,-38.27944281589896,0.0,0.0,66.41239661860325,23.214586613394346,211.7852396908322,-61.49402942929328,278.1976363094355,-38.27944281589896,8.859994092129194,5.928619464597582,0.0,0.0,81.08757061981363,-45.1088539426313,68.59368813236303,-18.12081932005097,62.10398093865559,1.7356438333889628,66.41239661860325,23.214586613394346,11,1.161714197796144e-15,872.856631266046,1.7408032755860716e-15,872.856631266046,2.220446049250313e-13,3.469446951953614e-18,0.0,1.3161740142073626,0.0
0.02431923315249401,290.8081353863463,-30.348952001675833,280.87396347036656,-36.94606565086596,244.96826936769088,-14.108044460581254,35.90569410267568,-22.838021190284707,69.10286201750041,23.917715871897244,211.77110145286616,-60.86378152276319,280.87396347036656,-36.94606565086596,9.934171915979723,6.597113649190129,0.0,0.0,80.42967890424264,-44.7177841410035,68.2396365850615,-18.02552430711663,63.10178596356199,1.87952692535697,69.10286201750041,23.917715871897244,10,1.2919857868643356e-15,883.6363137293523,1.3173912706215237e-15,883.6363137293523,2.220446049250313e-13,0.0,0.12339131383194024,1.3079479266185665,0.12339131383194024
0.025749776279111302,289.0633018122187,-31.10686326357591,278.00217512550887,-38.39642712222221,244.23516524260629,-16.782902445878477,33.767009882902585,-21.61352467634373,65.73366820713605,22.779351622258837,212.26850691837282,-61.17577874448108,278.00217512550887,-38.39642712222221,11.061126686709839,7.289563858646296,0.0,0.0,80.80331522415054,-44.9285106372652,68.54014323818939,-18.105563397786202,62.9250484560329,1.8582952905703323,65.73366820713605,22.779351622258837,10,1.0784827251768646e-15,810.1906196284751,1.12119932607103e-15,810.1906196284751,2.220446049250313e-13,0.0,0.1151652262431444,1.2997218390297705,0.1151652262431444
0.027180319405728598,293.1636873001619,-29.340980459005337,280.9242045970926,-37.3452643361054,249.61198559050598,-17.176906498251242,31.312219006586645,-20.16835783785416,68.1841219656121,23.387398614939343,212.74008263148053,-60.73266295104476,280.9242045970926,-37.3452643361054,12.239482703069266,8.004283877100066,0.0,0.0,80.45562757184462,-44.737834333288575,68.1973446907981,-18.01380749285014,64.0871103688378,2.0189788750939712,68.1841219656121,23.387398614939343,10,9.270275941471024e-16,823.6038588544966,1.1235576689417416e-15,823.6038588544966,2.220446049250313e-13,0.0,0.10693913865434834,1.2914957514409746,0.10693913865434834
0.02861086253234589,287.6005973345487,-30.958486185119853,274.13271985669206,-39.69811095320628,245.00035875029062,-20.816323468953954,29.132361106401447,-18.881787484252328,62.27612932596427,21.557809950579433,211.85659053072783,-61.25592090378578,274.13271985669206,-39.69811095320628,13.467877477856655,8.739624768086431,0.0,0.0,80.8475084514699,-44.95843193836898,68.50285922813222,-18.096652737188762,62.50622285112567,1.7991637717720081,62.27612932596427,21.557809950579433,10,1.1018018416170169e-15,752.6667496348732,1.1794576712567496e-15,752.6667496348732,2.220446049250313e-13,0.0,0.09871305106555206,1.2832696638521786,0.09871305106555206
0.030041405658963186,291.2812955290772,-29.31785668075623,276.5363323233077,-38.81183201805601,249.86096315758815,-21.414810550833636,26.67536916571956,-17.397021467222373,64.37813001803288,22.04393126695321,212.15820230527484,-60.85576328500923,276.5363323233077,-38.81183201805601,14.74496320576954,9.493975337299782,0.0,0.0,80.51658283848602,-44.776742284650524,68.16802057499939,-18.008050125039283,63.47359889178942,1.9290291246805893,64.37813001803288,22.04393126695321,10,1.1271091599250504e-15,760.3051210453002,1.6992918632127547e-15,760.3051210453002,2.220446049250313e-13,0.0,0.09048696347675622,1.2750435762633825,0.09048696347675622
0.03147194878558048,285.8786469069339,-30.773988220734545,269.80923871259114,-41.03975074513383,245.36119035942673,-24.99647111571406,24.44804835316441,-16.04327962941977,59.20338431855666,20.437210918029734,210.60585439403445,-61.476961663163536,269.80923871259114,-41.03975074513383,16.069408194342778,10.265762524399285,0.0,0.0,80.92236589447117,-45.00476975456271,68.48005404031905,-18.093477110041732,61.20343445924425,1.621285201440891,59.20338431855666,20.437210918029734,10,1.2935961497226835e-15,698.2097548953244,1.5197960608918493e-15,698.2097548953244,2.220446049250313e-13,0.0,0.08226087588796016,1.2668174886745864,0.08226087588796016
0.032902491912197775,288.94091188083024,-29.248329395874585,271.50101362358896,-40.30178112085983,249.51656689827016,-25.786151133739168,21.984446725318804,-14.515629987120661,61.07143256382194,20.852631341942597,210.42958105976703,-61.15441246280244,271.50101362358896,-40.30178112085983,17.439898257241257,11.053451724985246,0.0,0.0,80.60632637494636,-44.83106279966034,68.15200884136596,-18.007769599891645,61.67124584345469,1.6844199367495492,61.07143256382194,20.852631341942597,10,1.160464392461795e-15,703.1151448496297,1.6034745594655015e-15,703.1151448496297,1.6653345369377348e-13,0.0,0.07403478829916432,1.2585914010857904,0.07403478829916432
0.034333035038815074,286.0274359511123,-30.21211918092536,267.1722978818735,-42.06766622486387,247.4675074599098,-28.977311194417524,19.70479042196368,-13.090355030446347,57.520217739615234,19.607829710442267,209.65208014225828,-61.675495935306174,267.1722978818735,-42.06766622486387,18.85513806923882,11.855547043938511,0.0,0.0,81.02246022399454,-45.064623498136186,68.4723900262519,-18.095416259980716,60.15722989201183,1.4845438228107426,57.520217739615234,19.607829710442267,10,1.06432802550519e-15,647.7932928233284,1.3428986104341392e-15,647.7932928233284,1.1102230246251565e-13,0.0,0.06580870071036804,1.2503653134969945,0.06580870071036804
0.035763578165432366,289.03140277503326,-28.69465353947802,268.7175502927548,-41.36524502085561,251.4867858479803,-29.84846926035101,17.230764444774536,-11.5167757605046,59.40189313317753,20.01784960184549,209.3156571595773,-61.38309462270115,268.7175502927548,-41.36524502085561,20.31385248227843,12.670591481377594,0.0,0.0,80.71960409382842,-44.89803123184131,68.15107273499011,-18.012388579483215,60.44498033075876,1.5273251886233936,59.40189313317753,20.01784960184549,10,1.323778683683555e-15,651.8014483315967,1.647345444175548e-15,651.8014483315967,1.1102230246251565e-13,0.0,0.0575826131215722,1.2421392259081985,0.0575826131215722
0.03719412129204966,287.49976359273217,-29.42181687903191,265.6849757906609,-42.91898393157888,250.79018337848066,-32.90294869201455,14.894792412180266,-10.016035239564332,56.416766020466696,18.89159889103533,209.26820977019423,-61.81058282261422,265.6849757906609,-42.91898393157888,21.81478780207126,13.497167052546969,0.0,0.0,81.14284055145892,-45.135461601012196,68.47972858846124,-18.10173203973386,59.645640630274066,1.4266108181318629,56.416766020466696,18.89159889103533,10,9.2637547306632e-16,601.1777597585864,1.0250931619215625e-15,601.1777597585864,1.6653345369377348e-13,0.0,0.04935652553277614,1.2339131383194024,0.04935652553277614
0.03862466441866695,290.69728687065935,-27.881098236488544,267.340573845901,-42.21499307949628,254.93361180951595,-33.821360398311384,12.406962036385067,-8.393632681184897,58.32374837892789,19.300775760983548,209.01682546697316,-61.51576884047985,267.340573845901,-42.21499307949628,23.356713024758317,14.333894843007737,0.0,0.0,80.85144957837312,-44.97513664788868,68.17130837203821,-18.021889785427415,59.99406751656183,1.4812575928362435,58.32374837892789,19.300775760983548,10,1.3776908192309008e-15,604.8872529963156,2.0668173327924643e-15,604.8872529963156,1.6653345369377348e-13,0.0,0.04113043794398008,1.2256870507306066,0.04113043794398008
0.04005520754528425,289.80849790392125,-28.519020826973943,264.8700768707043,-43.69845582752558,254.8588094198117,-36.88471927639068,10.011267450892575,-6.813736551134895,55.39904730494213,18.183158181717452,209.4710295657621,-61.88161400924302,264.8700768707043,-43.69845582752558,24.938421033216958,15.179435000551633,0.0,0.0,81.27883857815313,-45.21494613488078,68.51304603599208,-18.113299220226484,59.67914495161691,1.4466313458642546,55.39904730494213,18.183158181717452,10,1.1875165972155766e-15,558.3220855590735,1.4292445081063734e-15,558.3220855590735,2.220446049250313e-13,0.0,0.03290435035518402,1.2174609631418103,0.03290435035518402
0.04148575067190154,293.2341143671028,-26.962318544361413,266.6753846144446,-42.99480520967009,259.16879372427826,-37.855085456779875,7.506590890166365,-5.139719752890215,57.275989834088406,18.579382229459995,209.39939478035618,-61.57418743913004,266.6753846144446,-42.99480520967009,26.558729752658156,16.032486665308678,0.0,0.0,80.99731134302488,-45.060095981499146,68.2224640832054,-18.037169338438225,60.17961935412592,1.523077880807314,57.275989834088406,18.579382229459995,10,1.0981362131272119e-15,561.9353588451029,1.0572453732284955e-15,561.9353588451029,1.1102230246251565e-13,0.0,0.02467826276638796,1.2092348755530145,0.02467826276638796
0.042916293798518836,292.4863228379242,-27.596641866053474,264.26983957270255,-44.48842970561745,259.22167763437443,-41.01131179649002,5.048161938328121,-3.477117909127429,54.205766328504495,17.427647192230197,210.06407324419808,-61.91607689784766,264.26983957270255,-44.48842970561745,28.21648326522166,16.891787839563975,0.0,0.0,81.42813712954793,-45.301747179526615,68.56961965441533,-18.129471341450323,60.06631646023483,1.515141623129253,54.205766328504495,17.427647192230197,10,1.0099069845392652e-15,519.1885220260554,2.2499381203552225e-15,519.1885220260554,2.220446049250313e-13,0.0,0.01645217517759212,1.2010087879642184,0.01645217517759212
0.044346836925136135,296.08283235588453,-26.042068668550314,266.1722794725519,-43.79818386738802,263.6483973156719,-42.04940932206969,2.5238821568800063,-1.7487745453183265,56.00434802739147,17.799698044588467,210.16793144516043,-61.597881911976486,266.1722794725519,-43.79818386738802,29.91055288333261,17.756115198837705,0.0,0.0,81.1583740357211,-45.15303663057331,68.29111725690728,-18.05549494649306,60.71844015253205,1.6106496650898947,56.00434802739147,17.799698044588467,10,1.0378687563170864e-15,522.780841252854,1.7121611009920557e-15,522.780841252854,2.220446049250313e-13,0.0,0.00822608758879606,1.1927827003754223,0.00822608758879606
0.04577738005175343,287.0347181642327,-31.90260936585488,276.85540767769237,-38.77183603022934,276.85540767769237,-38.77183603022934,0.0,0.0,65.56904604703757,23.10542270113472,211.28636163065485,-61.87725873136408,276.85540767769237,-38.77183603022934,10.1793104865403,6.869226664374457,0.0,0.0,81.59356477462391,-45.39676069143887,68.63661949260256,-18.14760881452777,61.05617736342838,1.6671107746025484,65.56904604703757,23.10542270113472,11,1.0060544487415513e-15,800.4284038110507,1.3635925483443786e-15,800.4284038110507,2.220446049250313e-13,0.0,0.0,1.3161740142073626,0.0
0.04720792317837072,291.1994706296294,-29.890313237205362,279.9283220477656,-37.439250179376444,243.69112272687443,-14.389812231667122,36.23719932089119,-23.049437947709322,68.45157853287698,23.922467906418632,211.47674351488865,-61.36171808579506,279.9283220477656,-37.439250179376444,11.271148581863756,7.54893694217108,0.0,0.0,81.08444062401628,-45.089630030681064,68.3665532587578,-18.075464520469698,62.02574963211458,1.8033764653556972,68.45157853287698,23.922467906418632,10,1.2829162402004628e-15,809.0523478374001,2.093418845250705e-15,809.0523478374001,2.220446049250313e-13,0.0,0.12339131383194024,1.3079479266185665,0.12339131383194024
0.04863846630498802,289.45518451880815,-30.843833251622023,277.0459407672741,-39.092203105046934,242.9237492068911,-17.250838951544296,34.12219156038299,-21.84136415350264,64.88156097469506,22.642632718714204,212.16437979257898,-61.7348358237611,277.0459407672741,-39.092203105046934,12.409243751534044,8.24836985342491,0.0,0.0,81.55287663633813,-45.35383126301638,68.70981001003821,-18.167924793562577,61.901693146202646,1.7869202328178346,64.88156097469506,22.642632718714204,10,1.7338012742575194e-15,744.3120578016943,1.8372580762818845e-15,744.3120578016943,1.1102230246251565e-13,0.0,0.11516522624314418,1.2997218390297705,0.11516522624314418
0.05006900943160531,294.11372707032115,-29.0120033523108,280.5214075260863,-37.977992194630815,248.81907174532282,-17.557910084767883,31.70233578076349,-20.420082109862932,67.66592518931662,23.413947873948665,212.85548233676974,-61.3919400685795,280.5214075260863,-37.977992194630815,13.592319544234844,8.965988842320014,0.0,0.0,81.33940708466669,-45.2389397759824,68.44553261786209,-18.097620612062087,63.070542634240965,1.9446203194649812,67.66592518931662,23.413947873948665,10,8.810898448280926e-16,756.6908128754259,1.8215009865951177e-15,756.6908128754259,1.1102230246251565e-13,0.0,0.10693913865434834,1.2914957514409746,0.10693913865434834
0.051499552558222604,288.5493037647961,-30.818548726168075,273.7301802184725,-40.518847605163415,244.20510841698263,-21.382160577160903,29.5250718014899,-19.136687028002513,61.5521506811457,21.440499292735005,212.17802953732684,-61.95934689789844,273.7301802184725,-40.518847605163415,14.819123546323594,9.70029887899534,0.0,0.0,81.80734539706935,-45.502385008570144,68.78937176280576,-18.19125899246309,61.581312377451695,1.7342971031348142,61.5521506811457,21.440499292735005,10,1.359741146220719e-15,692.7833344357166,1.7817196814484044e-15,692.7833344357166,2.220446049250313e-13,0.0,0.09871305106555206,1.2832696638521786,0.09871305106555206
0.0529300956848399,292.7798114954711,-29.096817814228437,276.6913829945095,-39.54666424452657,249.60873258696824,-21.88371268364409,27.08265040754128,-17.662951560882476,64.00416238176479,22.10418319181634,212.68722061274474,-61.65084743634293,276.6913829945095,-39.54666424452657,16.088428500961598,10.44984643029813,0.0,0.0,81.59768609018082,-45.389133788901944,68.52958991419709,-18.122912343832247,62.55994460836682,1.861198696391284,64.00416238176479,22.10418319181634,10,9.749977490224636e-16,701.1182783744479,1.3422701453008853e-15,701.1182783744479,2.220446049250313e-13,0.0,0.09048696347675622,1.2750435762633825,0.09048696347675622
0.054360638811457196,287.24509253948975,-30.77830763038621,269.84605915458246,-41.99152699884982,245.00484331452964,-25.690003926229593,24.841215840052826,-16.301523072620228,58.519129317050115,20.31622251053146,211.32692983753236,-62.307749509381296,269.84605915458246,-41.99152699884982,17.39903338490726,11.213219368463612,0.0,0.0,82.06556307999439,-45.6520524597867,68.87840722923957,-18.218350997339968,60.38295952829836,1.5626539477454244,58.519129317050115,20.31622251053146,10,1.3039642240263589e-15,644.3897060967079,1.9382104312914212e-15,644.3897060967079,2.220446049250313e-13,0.0,0.08226087588796016,1.2668174886745864,0.08226087588796016
0.05579118193807449,290.8013404899354,-29.189468705373063,272.0515760470481,-41.178515524764265,249.67726921930793,-26.405286033985163,22.374306827740185,-14.773229490779102,60.70084755985037,20.891020718457604,211.35072848719773,-62.06953624322185,272.0515760470481,-41.178515524764265,18.749764442887273,11.989046819391202,0.0,0.0,81.85987402131136,-45.54055814261008,68.6234948981173,-18.152133091634298,60.86735956776911,1.6231549910225027,60.70084755985037,20.891020718457604,10,9.503197911720567e-16,650.2693377310238,1.6969079344185235e-15,650.2693377310238,1.1102230246251565e-13,0.0,0.0740347882991641,1.2585914010857904,0.0740347882991641
0.05722172506469178,287.7584647845627,-30.371614924759648,267.61898860504726,-43.14761387697834,247.55194613101264,-29.816473657873757,20.067042474034622,-13.331140219104583,56.837042766398305,19.469518545529183,210.78194583864894,-62.61713242250754,267.61898860504726,-43.14761387697834,20.139476179515466,12.775998952218693,0.0,0.0,82.32789342011506,-45.80315045084703,68.98026853656482,-18.24945780605358,59.473783881969034,1.4354758343930811,56.837042766398305,19.469518545529183,10,1.1710837155660586e-15,599.7863609366319,1.8109430389768885e-15,599.7863609366319,2.220446049250313e-13,0.0,0.06580870071036804,1.2503653134969945,0.06580870071036804
0.05865226819130908,291.19680820637564,-28.8162577620373,269.6297558975885,-42.38904447396348,252.05585938846968,-30.642830625369754,17.57389650911881,-11.746213848593726,58.98155585455997,20.013086354076393,210.64820004302854,-62.40213082803986,269.6297558975885,-42.38904447396348,21.567052308787137,13.572786711926181,0.0,0.0,82.12626942076389,-45.69353742384939,68.73100655194146,-18.18543967864779,59.79092407032318,1.476846274457337,58.98155585455997,20.013086354076393,10,1.2613076322658416e-15,604.727121059153,1.697783550033673e-15,604.727121059153,2.220446049250313e-13,0.0,0.05758261312157198,1.2421392259081985,0.05758261312157198
0.06008281131792637,289.4915275941043,-29.75164031299007,266.46012093287646,-44.12980180971485,251.26092930157918,-33.909013660012135,15.199191631297282,-10.220788149702713,55.69302633169806,18.727055228683255,210.76709460117837,-62.856857038398104,266.46012093287646,-44.12980180971485,23.03140666122782,14.378161496724779,0.0,0.0,82.59408555195328,-45.95577287295815,69.09557753251487,-18.284238424315223,59.07743151671025,1.3831542588752441,55.69302633169806,18.727055228683255,10,1.8097744592958176e-15,558.5951436384717,1.7255291015468884e-15,558.5951436384717,2.220446049250313e-13,0.0,0.04935652553277614,1.2339131383194024,0.04935652553277614
0.061513354444543665,293.04517807192303,-28.200465262276165,268.51369402309257,-43.39138004428409,255.83554377725812,-34.814245819995335,12.678150245834445,-8.577134224288756,57.80919772109392,19.244376259268357,210.70449630199863,-62.635756303552455,268.51369402309257,-43.39138004428409,24.531484048830457,15.190914782007926,0.0,0.0,82.39635830715432,-45.848058196681684,68.85770123323088,-18.22298632543682,59.450436761613425,1.4352882185660505,57.80919772109392,19.244376259268357,10,1.3140994246793993e-15,563.1361845685436,9.49062702725497e-16,563.1361845685436,2.220446049250313e-13,0.0,0.04113043794398008,1.2256870507306066,0.04113043794398008
0.06294389757116096,291.98913638341105,-29.02598285385913,265.92287529544694,-45.03586054651913,255.68854625414883,-38.07028870225267,10.23432904129811,-6.965571844266464,54.62741023005316,17.993266283980454,211.29546506539376,-63.029126830499564,265.92287529544694,-45.03586054651913,26.066261087964094,16.00987769266,0.0,0.0,82.86317254375808,-46.109675431317115,69.23375962110552,-18.323498410635906,59.19853290053016,1.4040470114534571,54.62741023005316,17.993266283980454,10,8.530936703034157e-16,520.714286006273,1.2763359715334345e-15,520.714286006273,2.220446049250313e-13,0.0,0.03290435035518402,1.2174609631418103,0.03290435035518402
0.06437444069777826,295.69420349712755,-27.484308755307445,268.059456516641,-44.31822928083858,260.37567373306024,-39.05717937491437,7.683782783580739,-5.26104990592421,56.66544451889061,18.47481210440244,211.3940119977504,-62.793041385241025,268.059456516641,-44.31822928083858,27.634746980486593,16.833920525531134,0.0,0.0,82.66902257779601,-46.003793142256725,69.01207334950226,-18.26556306993045,59.71291607045213,1.476314826946151,56.66544451889061,18.47481210440244,10,8.560434621909854e-16,525.0394201924782,9.973160380033748e-16,525.0394201924782,8.326672684688674e-14,0.0,0.02467826276638796,1.2092348755530145,0.02467826276638796
0.06580498382439555,294.8156411143948,-28.281126332636152,265.5796568610508,-45.94307855653574,260.410584435498,-42.38267655072386,5.169072425552827,-3.5604020058118806,53.39880786984299,17.218467950373352,212.1808489912078,-63.161546506909076,265.5796568610508,-45.94307855653574,29.235984253343965,17.661952223899586,0.0,0.0,83.13559597586125,-46.265122180314584,69.39236066132601,-18.36662486821164,59.65289235402053,1.4702005416171389,53.39880786984299,17.218467950373352,10,1.237097783394009e-15,486.08605537884495,1.1618850381059966e-15,486.08605537884495,1.1102230246251565e-13,0.0,0.0164521751775919,1.2010087879642184,0.0164521751775919
0.06723552695101284,298.62476549295474,-26.76405526081586,267.75571603597325,-45.256975066564564,265.16826261821245,-43.46415228989193,2.5874534177607984,-1.7928227766726366,55.3158912475909,17.65552633312329,212.43982478838234,-62.91250139968783,267.75571603597325,-45.256975066564564,30.86904945698146,18.492919805748706,0.0,0.0,82.94791267783484,-46.1623129707329,69.1816365313764,-18.31052602652825,60.310275579171105,1.560337597573323,55.3158912475909,17.65552633312329,10,1.1996781177270004e-15,490.2699579890832,2.5708125064301646e-15,490.2699579890832,8.326672684688674e-14,0.0,0.00822608758879606,1.1927827003754223,0.00822608758879606
0.06866607007763015,289.8204116371018,-32.56253838925945,278.51163197579245,-40.25495567581356,278.51163197579245,-40.25495567581356,0.0,0.0,64.85109569026032,22.964069020267452,213.66053628553212,-63.21902469608101,278.51163197579245,-40.25495567581356,11.308779661309355,7.69241728655411,0.0,0.0,83.41614785363868,-46.42417243841641,69.55953286939224,-18.41108310489532,60.6848555625012,1.6162308472307174,64.85109569026032,22.964069020267452,11,1.0395352084291772e-15,743.8621793842018,1.8188663491422847e-15,743.8621793842018,1.1102230246251565e-13,0.0,0.0,1.3161740142073626,0.0
0.07009661320424744,292.0988759778321,-30.996473973324775,279.70433451408104,-39.364352414819734,242.55822053199026,-15.735850156495417,37.14611398209078,-23.628502258324318,66.24072477459889,23.473911722875613,213.46360973948214,-62.83826413769533,279.70433451408104,-39.364352414819734,12.39454146375104,8.367878441494957,0.0,0.0,82.97306265539366,-46.1527597889853,69.35659836948835,-18.356539264852284,61.13394871460015,1.6710349161422542,66.24072477459889,23.473911722875613,10,9.695682771182795e-16,750.9654263452055,1.3492474060821417e-15,750.9654263452055,1.1102230246251565e-13,0.0,0.12339131383194024,1.3079479266185665,0.12339131383194024
0.07152715633086473,291.2219099907464,-31.88520735564607,277.70129605296535,-40.94451426782021,242.7129675783477,-18.54800473647012,34.988328474617646,-22.39650953135009,63.253370776601436,22.26369692733082,214.44792527636392,-63.20821119515105,277.70129605296535,-40.94451426782021,13.52061393778104,9.05930691217414,0.0,0.0,83.47395903617381,-46.43488205858782,69.7319020340275,-18.45719855771653,61.24206420616261,1.6838694211532896,63.253370776601436,22.26369692733082,10,1.4533722420387591e-15,692.799227705971,1.9733008039764303e-15,692.799227705971,2.220446049250313e-13,0.0,0.11516522624314418,1.2997218390297707,0.11516522624314418
0.07295769945748203,295.8225085911347,-30.098480385506605,281.13661765848013,-39.8638319222014,248.595758294454,-18.903052305702317,32.54085936402615,-20.96077961649908,66.0351482183172,23.090368855330354,215.1014694401629,-62.95420077753174,281.13661765848013,-39.8638319222014,14.68589093265456,9.765351536694793,0.0,0.0,83.33517255115174,-46.36164403382606,69.53455241055478,-18.404284223344007,62.23174447845637,1.811727479638357,66.0351482183172,23.090368855330354,10,1.0753705375080792e-15,704.0317884609342,1.3364056293388726e-15,704.0317884609342,1.1102230246251565e-13,0.0,0.10693913865434812,1.2914957514409746,0.10693913865434812
0.07438824258409932,289.8913380581402,-32.084920614312395,274.0020399067084,-42.56962439732462,243.68803304686375,-22.92113715252441,30.314006859844625,-19.648487244800208,59.65595736333596,20.99862072017789,214.3460825433724,-63.568245117502514,274.0020399067084,-42.56962439732462,15.88929815143185,10.484703783012218,0.0,0.0,83.83401220952398,-46.642166463744566,69.9102208661123,-18.506006537568965,60.601849467736145,1.579927883811017,59.65595736333596,20.99862072017789,10,1.1526302902368818e-15,646.0062655212214,2.344780267145063e-15,646.0062655212214,2.220446049250313e-13,0.0,0.09871305106555206,1.2832696638521786,0.09871305106555206
0.07581878571071661,293.87521221978426,-30.42604609382697,276.7454183358392,-41.64214338020662,248.91151161277335,-23.48888676699869,27.833906723065837,-18.15325661320793,62.10153658607264,21.724942278896414,214.64388174976654,-63.367085659103026,276.7454183358392,-41.64214338020662,17.129793883945062,11.216097286379652,0.0,0.0,83.69596876196104,-46.56881938348714,69.71723621495431,-18.454893070752135,61.23067677285117,1.6566267951362548,62.10153658607264,21.724942278896414,10,1.3690903276557287e-15,654.514674069034,1.7542316884973472e-15,654.514674069034,2.220446049250313e-13,0.0,0.09048696347675622,1.2750435762633825,0.09048696347675622
0.0772493288373339,290.04630500091645,-31.918581097911815,271.6399353027198,-43.87688843591164,246.10356840199458,-27.118933737244987,25.5363669007252,-16.75795469866665,57.4862747139268,20.064506953767044,214.15366058879295,-63.94139538967866,271.6399353027198,-43.87688843591164,18.40636969819667,11.958307337999823,0.0,0.0,84.19352408173859,-46.848140020849556,70.09731757148131,-18.558395538654736,59.86281893557307,1.4651401698256308,57.4862747139268,20.064506953767044,10,1.0846080152323535e-15,602.3539714435692,1.9071482156041698e-15,602.3539714435692,2.220446049250313e-13,0.0,0.08226087588796016,1.2668174886745867,0.08226087588796016
0.07867987196395121,293.7289756915763,-30.34039859500309,274.0109246009292,-43.050548921800015,250.98873854911446,-27.849357173510327,23.022186051814714,-15.201191748289688,59.81474864998948,20.726648451132682,214.19617595093973,-63.77719737293272,274.0109246009292,-43.050548921800015,19.71805109064711,12.710150326796924,0.0,0.0,84.05671303290842,-46.77497390846452,69.90870700799002,-18.509257506368165,60.23075591004128,1.5070340418999777,59.81474864998948,20.726648451132682,10,1.0525469755293715e-15,608.7611361550298,9.064799401511764e-16,608.7611361550298,2.220446049250313e-13,0.0,0.0740347882991641,1.2585914010857904,0.0740347882991641
0.0801104150905685,291.4776597663858,-31.518283894016307,270.41376167050066,-44.98876703023589,249.7612267590324,-31.268541217246337,20.65253491146825,-13.720225812989554,56.172874778717514,19.290631888415575,214.2408868917831,-64.27939891865142,270.41376167050066,-44.98876703023589,21.06389809588513,13.470483136219583,0.0,0.0,84.55359357520555,-47.05349408050198,70.29620655229218,-18.61471314399509,59.39108676428538,1.3888083058456289,56.172874778717514,19.290631888415575,10,1.0264529820761683e-15,562.2798122446153,1.819060841974983e-15,562.2798122446153,2.220446049250313e-13,0.0,0.06580870071036804,1.2503653134969945,0.06580870071036804
0.0815409582171858,295.1511613943292,-29.97540051840552,272.70815553811167,-44.213603016389754,254.6051933295754,-32.11368427185562,18.10296220853627,-12.099918744534136,58.445174960422015,19.906097044263213,214.26298057768963,-64.11970006065295,272.70815553811167,-44.213603016389754,22.443005856217543,14.238202497984233,0.0,0.0,84.4184631077211,-46.980819466927336,70.11253613842086,-18.567628408771142,59.731981331547686,1.4287478150455257,58.445174960422015,19.906097044263213,10,1.1341723539686636e-15,567.7651587717959,7.690404329974591e-16,567.7651587717959,1.1102230246251565e-13,0.0,0.05758261312157198,1.2421392259081985,0.05758261312157198
0.08297150134380309,293.8048947474368,-30.980224495645736,269.95038959569024,-45.99246880030432,254.29060114583925,-35.461898714506674,15.659788449850993,-10.530570085797649,55.14874974756073,18.565423261275335,214.8016398481295,-64.55789206157965,269.95038959569024,-45.99246880030432,23.85450515174655,15.012244304658589,0.0,0.0,84.91470946778652,-47.25870824599167,70.50811252851658,-18.674749500219654,59.37881785182638,1.3755656846316882,55.14874974756073,18.565423261275335,10,9.092720594841624e-16,525.3362060715245,1.8601595674914234e-15,525.3362060715245,1.1102230246251565e-13,0.0,0.04935652553277592,1.2339131383194024,0.04935652553277592
0.08440204447042038,297.56941693713685,-29.46354643176808,272.2718540455968,-45.25512931474424,259.1982753794241,-36.4104475113684,13.073578666172693,-8.844681803375835,57.33523614032795,19.132098301727666,214.93661790526883,-64.3872276164719,272.2718540455968,-45.25512931474424,25.297562891540032,15.791582882976158,0.0,0.0,84.78143045910605,-47.1867257252302,70.33450051769863,-18.630232197777858,59.820686928464134,1.4297303065361788,57.33523614032795,19.132098301727666,10,1.0962793700845924e-15,530.3691012530553,1.6830589129065728e-15,530.3691012530553,2.220446049250313e-13,0.0,0.04113043794398008,1.2256870507306066,0.04113043794398008
0.08583258759703767,296.5914927259698,-30.39228491874878,269.8201101594368,-46.96751514850959,259.26473659506814,-39.78342327853329,10.555373564368665,-7.1840918699762994,54.077392310817416,17.824073400093184,215.74271784861935,-64.79158854860273,269.8201101594368,-46.96751514850959,26.771382566532957,16.575230229760813,0.0,0.0,85.2765126776174,-47.46387271813154,70.74181853384158,-18.73922752938708,59.72438663716037,1.4115116989158807,54.077392310817416,17.824073400093184,10,9.318519382664022e-16,491.35874538749687,1.1569133371170647e-15,491.35874538749687,1.1102230246251565e-13,0.0,0.03290435035518402,1.2174609631418105,0.03290435035518402
0.08726313072365498,300.4331061119279,-28.909867104875445,272.1579014471012,-46.27210231719883,264.2265940209622,-40.84156753692213,7.931307426139028,-5.430534780276702,56.13735970697517,18.335919526295726,216.02054174012602,-64.60802184349454,272.1579014471012,-46.27210231719883,28.275204664826656,17.362235212323384,0.0,0.0,85.14504637593352,-47.392675052216276,70.58316545466646,-18.697829006228737,60.29232990952606,1.4824822149504584,56.13735970697517,18.335919526295726,10,1.466135501808789e-15,496.0998288210628,1.756383115488971e-15,496.0998288210628,2.220446049250313e-13,0.0,0.02467826276638796,1.2092348755530145,0.02467826276638796
0.08869367385027227,301.46128457307424,-29.34902003145315,271.65297752299136,-47.50070276662913,266.3165479261063,-43.82502522222171,5.336429596885068,-3.675677544407421,54.48529513505482,17.461880591864677,217.16768238793654,-64.96258335849379,271.65297752299136,-47.50070276662913,29.808307050082853,18.15168273517598,0.0,0.0,85.63989609895152,-47.66951155630038,70.99534885012265,-18.80747605114935,60.53243743886235,1.5144042489559268,54.48529513505482,17.461880591864677,10,1.2001925890151326e-15,460.2609008290639,2.2034356747666366e-15,460.2609008290639,1.1102230246251565e-13,0.0,0.0164521751775919,1.2010087879642184,0.0164521751775919
0.09012421697688956,305.75077385673353,-27.830032339762973,274.38076855299784,-46.7727252146519,271.7074602228735,-44.92041414930958,2.673308330124314,-1.8523110653423203,56.679333004593815,17.977412713001215,217.701435548404,-64.7501379276531,274.38076855299784,-46.7727252146519,31.3700053037357,18.942692874888927,0.0,0.0,85.51344493967346,-47.600506216466215,70.84668624294201,-18.767669873787195,61.341304365788545,1.6180381626002998,56.679333004593815,17.977412713001215,10,9.994686823609923e-16,464.7794357243049,2.3279732314570214e-15,464.7794357243049,2.220446049250313e-13,0.0,0.00822608758879606,1.1927827003754223,0.00822608758879606
0.09155476010350685,296.5749899539377,-33.678256427350604,284.42448719133233,-42.00158638659869,284.42448719133233,-42.00158638659869,0.0,0.0,65.49710476824752,23.09356525571969,218.9273824230848,-65.09515164231837,284.42448719133233,-42.00158638659869,12.150502762605376,8.323329959248083,0.0,0.0,86.01002146905518,-47.87789244331512,71.25619688277422,-18.876643073456428,61.6611640712554,1.6593838744531766,65.49710476824752,23.09356525571969,11,1.325007288889327e-15,700.933676673279,1.9724328689627054e-15,700.933676673279,1.1102230246251565e-13,0.0,0.0,1.3161740142073626,0.0
0.09298530323012415,301.16743731633966,-31.693256012588783,287.957685749571,-40.67429129595186,249.57629575141496,-16.25931331139111,38.38138999815604,-24.41497798456075,68.5270192216019,24.007710963651398,219.43066652796912,-64.68200225960324,287.957685749571,-40.67429129595186,13.209751566768633,8.981035283363077,0.0,0.0,85.62026437362695,-47.63517780897722,71.11419493997452,-18.838050720860085,62.69620721436762,1.7912262702340698,68.5270192216019,24.007710963651398,10,1.140176233360508e-15,706.9639495736285,1.3925753386100406e-15,706.9639495736285,2.220446049250313e-13,0.0,0.12339131383194024,1.3079479266185665,0.12339131383194024
0.09441584635674144,298.9028184799351,-32.99014830118813,284.5984696673387,-42.64182895951285,248.44071413512793,-19.496185206532687,36.15775553221076,-23.145643752980163,64.33708463721678,22.47035539991343,220.26138503012191,-65.11218435942627,284.5984696673387,-42.64182895951285,14.304348812596409,9.651680658324722,0.0,0.0,86.1501466541814,-47.933246913009725,71.51954294880464,-18.94666940676381,62.59169542713586,1.7677319603472839,64.33708463721678,22.47035539991343,10,1.054805887964792e-15,653.677470765859,1.627377091232843e-15,653.677470765859,1.1102230246251565e-13,0.0,0.1151652262431444,1.2997218390297707,0.1151652262431444
0.09584638948335873,304.1893686502273,-31.158945007683272,288.7559626210536,-41.49306211996637,255.10260725665145,-19.815249022005645,33.65335536440213,-21.677813097960723,67.42321090739594,23.37896465970028,221.33275171365767,-64.87202677966667,288.7559626210536,-41.49306211996637,15.433406029173755,10.334117112283094,0.0,0.0,86.07061678806522,-47.8926855191663,71.38170667335876,-18.90925721290936,63.8804282522337,1.929915952408976,67.42321090739594,23.37896465970028,10,1.3201270054483556e-15,663.8730412632605,1.8730807082698785e-15,663.8730412632605,2.220446049250313e-13,0.0,0.10693913865434834,1.2914957514409746,0.10693913865434834
0.09727693260997604,297.5653391701145,-33.37867415785037,280.9692680110332,-44.405910714700155,249.6140463246058,-24.08221313358564,31.3552216864274,-20.323697581114516,60.44645376114327,21.12340291616993,220.52281424988993,-65.52931363087012,280.9692680110332,-44.405910714700155,16.596071159081315,11.02723655684979,0.0,0.0,86.59829743107474,-48.189108255193304,71.78531208562316,-19.0184001942251,62.139204733192024,1.6781948185482989,60.44645376114327,21.12340291616993,10,1.0833093954597814e-15,610.5220610874023,1.7685865377179515e-15,610.5220610874023,2.220446049250313e-13,0.0,0.09871305106555206,1.2832696638521786,0.09871305106555206
0.09870747573659333,302.0856393250308,-31.705645141504515,284.2941104004392,-43.435616127433946,255.48367972068203,-24.645229187166052,28.81043067975716,-18.790386940267894,63.05200237075539,21.90507904315733,221.24210802968378,-65.34069517059129,284.2941104004392,-43.435616127433946,17.79152892459163,11.72997098592943,0.0,0.0,86.51814634311752,-48.1476773310275,71.65031366481685,-18.982302305411956,63.073648021749406,1.7892844658481906,63.05200237075539,21.90507904315733,10,1.1682774913385177e-15,618.9092906028654,1.1050778658627296e-15,618.9092906028654,2.220446049250313e-13,0.0,0.09048696347675622,1.2750435762633825,0.09048696347675622
0.10013801886321062,296.7916654622342,-33.55487864187867,277.7726643042062,-45.99617028285223,251.33656917109641,-28.64760188379327,26.436095133109802,-17.348568399058962,57.53847926060635,20.02063724564774,220.2341850435999,-66.01680752849998,277.7726643042062,-45.99617028285223,19.019001158028022,12.441291640973562,0.0,0.0,87.04425631767558,-48.442754469244846,72.05683216108378,-19.092909695891148,61.13309656484051,1.5188566366360448,57.53847926060635,20.02063724564774,10,1.4543934905115198e-15,570.4987668447967,8.201935809610861e-16,570.4987668447967,2.220446049250313e-13,0.0,0.08226087588796038,1.2668174886745864,0.08226087588796038
0.10156856198982792,300.663492488484,-32.02124154917991,280.385745391387,-45.18144969370684,256.5361448869852,-29.433807069751936,23.849600504401792,-15.747642623954903,59.875162149893654,20.706232246184946,220.51058324149332,-65.88768193989178,280.385745391387,-45.18144969370684,20.27774709709702,13.160208144526926,0.0,0.0,86.96384020408247,-48.40066618796182,71.92477562468976,-19.058354377493778,61.621967412721105,1.5713386255638255,59.875162149893654,20.706232246184946,10,1.361829128217368e-15,577.1259730516628,1.1552033242025197e-15,577.1259730516628,2.220446049250313e-13,0.0,0.07403478829916432,1.2585914010857904,0.07403478829916432
0.10299910511644521,297.78755012482304,-33.3856395002469,276.2204864787997,-47.27140710415469,254.82287547572045,-33.05611664844102,21.397611003079277,-14.21529045571367,55.927570264256275,19.182894758147796,220.29291621454348,-66.45430186230249,276.2204864787997,-47.27140710415469,21.567063646023335,13.885767603907787,0.0,0.0,87.48905120905042,-48.69480482059308,72.338444337792,-19.170954800769955,60.465420667701096,1.411457759060525,55.927570264256275,19.182894758147796,10,2.324073842117924e-15,533.8695105250505,1.3557227348276463e-15,533.8695105250505,1.1102230246251565e-13,0.0,0.06580870071036804,1.2503653134969945,0.06580870071036804
0.1044296482430625,301.5066548471132,-31.912994496436056,278.6203692437795,-46.530048183270566,259.85208440105873,-33.985378905499374,18.76828484272079,-12.544669277771192,58.17234321567281,19.810146248077906,220.44802602810674,-66.34019443134851,278.6203692437795,-46.530048183270566,22.886285603333697,14.617053686834508,0.0,0.0,87.40878414696937,-48.65234212082174,72.21019397336494,-19.138133426765872,60.829047907772434,1.4502811162391325,58.17234321567281,19.810146248077906,10,1.332121056188905e-15,539.6262975556874,1.4984248452480833e-15,539.6262975556874,2.220446049250313e-13,0.0,0.0575826131215722,1.2421392259081985,0.0575826131215722
0.1058601913696798,299.8981792556759,-33.032919778688395,275.66339339852374,-48.386105449468204,259.4261385276738,-37.46718032789323,16.237254870849938,-10.918925121574972,54.79708499051888,18.43684813724638,220.86630840800487,-66.82295358671459,275.66339339852374,-48.386105449468204,24.23478585715218,15.35318567077981,0.0,0.0,87.93331616627357,-48.9457877879534,72.63278581498464,-19.25269165785515,60.30020642674665,1.375525859093976,54.79708499051888,18.43684813724638,10,1.0643219074554195e-15,500.16310809271323,1.6057945935022827e-15,500.16310809271323,2.220446049250313e-13,0.0,0.04935652553277614,1.2339131383194024,0.04935652553277614
0.1072907344962971,303.64736331970227,-31.59974135055175,278.0353877708213,-47.69305881835149,264.4713069030295,-38.516519605403374,13.564080867791802,-9.176539212948114,56.94345127092906,19.007496370165057,221.09193649989226,-66.70055518851657,278.0353877708213,-47.69305881835149,25.611975548880988,16.09331746779974,0.0,0.0,87.85340199069685,-48.90316233942526,72.51328839610308,-19.22216731195062,60.72524611309233,1.424774462859304,56.94345127092906,19.007496370165057,10,1.593806046591367e-15,505.4484019662235,7.92722484970478e-16,505.4484019662235,1.1102230246251565e-13,0.0,0.04113043794398008,1.2256870507306064,0.04113043794398008
0.10872127762291439,304.43927572743377,-32.1387251851395,277.4219715212781,-48.97536181169147,266.46940947495636,-41.52093079953801,10.95256204632176,-7.454431012153464,55.38570815806828,18.137924360252427,222.03626336320986,-67.11328617194391,277.4219715212781,-48.97536181169147,27.017304206155657,16.83663662655197,0.0,0.0,88.37689849563657,-49.195894492741026,72.94812037424776,-19.338828334237125,60.71124449332551,1.4214366550342703,55.38570815806828,18.137924360252427,10,1.0035564301196644e-15,469.16748715336536,1.151291185805345e-15,469.16748715336536,1.1102230246251565e-13,0.0,0.03290435035518402,1.2174609631418103,0.03290435035518402
0.11015182074953168,308.64866830222604,-30.661892946065745,280.1984084562578,-48.244256259244565,271.9638209182671,-42.60606340032666,8.234587537990706,-5.638192858917904,57.714065818061485,18.71943738638526,222.48434263819635,-66.96369364562983,280.1984084562578,-48.244256259244565,28.45025984596823,17.58236331317882,0.0,0.0,88.29734161583698,-49.1532222158513,72.84185381964926,-19.311116679054933,61.345147202710116,1.5006452492764097,57.714065818061485,18.71943738638526,10,8.396936195669044e-16,474.12094594169645,9.80357848617962e-16,474.12094594169645,2.220446049250313e-13,0.0,0.02467826276638818,1.2092348755530145,0.02467826276638818
0.11158236387614898,306.8101360588736,-31.880176829150333,276.8997670100078,-50.209926101846975,271.3587568103016,-46.39333457459878,5.541010199706193,-3.8165915272481925,53.49758349994413,17.17731717467592,223.40218351006368,-67.38724327652292,276.8997670100078,-50.209926101846975,29.91036904886579,18.329749272696642,0.0,0.0,88.82079418739765,-49.44571987089077,73.28140663164625,-19.428442993900337,61.29998269101979,1.4869195882681723,53.49758349994413,17.17731717467592,10,1.40376790632508e-15,440.7674694236039,9.354547575328448e-16,440.7674694236039,1.1102230246251565e-13,0.0,0.01645217517759212,1.2010087879642184,0.01645217517759212
0.11301290700276627,309.1506653128514,-30.895091657924112,277.7534683077195,-49.97316843041523,274.97613689451384,-48.04878060466757,2.7773314132056726,-1.924387825747658,54.052287803414,17.29510641382697,223.70118050430548,-67.26827484424219,277.7534683077195,-49.97316843041523,31.397197005131904,19.078076772491116,0.0,0.0,88.74477661596346,-49.404407551088894,73.1831013206276,-19.40193859705688,61.77330256771442,1.5380713039036067,54.052287803414,17.29510641382697,10,1.110630878502017e-15,445.45140096010323,1.0473090336717906e-15,445.45140096010323,2.220446049250313e-13,0.0,0.00822608758879606,1.1927827003754223,0.00822608758879606
0.11444345012938356,299.82358318677996,-36.67128134025083,287.18283298535613,-45.37985380617562,287.18283298535613,-45.37985380617562,0.0,0.0,62.39452286549482,22.287257191504942,224.78831011986134,-67.66711099768057,287.18283298535613,-45.37985380617562,12.640750201423803,8.70857246592479,0.0,0.0,89.27010022197904,-49.697530043914185,73.61839613358488,-19.518216580621424,61.89981376429741,1.548635626855031,62.39452286549482,22.287257191504942,11,1.0409625335368867e-15,669.8581340866724,1.6074101932004996e-15,669.8581340866724,1.1102230246251565e-13,0.0,0.0,1.3161740142073626,0.0
0.11587399325600087,303.91734720878986,-34.840665392400254,290.2588782623502,-44.179157932878724,250.37840627345565,-18.810291772883176,39.880471988894556,-25.368866159995548,65.12919594692852,23.143383765060676,225.12968231542166,-67.32254169793937,290.2588782623502,-44.179157932878724,13.658468946439644,9.338492540478468,0.0,0.0,88.91685865727017,-49.473523677538424,73.52403982360909,-19.49234021273208,62.68878383454246,1.643322192331084,65.12919594692852,23.143383765060676,10,9.30950186113489e-16,675.1397450334584,1.3690343280546963e-15,675.1397450334584,2.220446049250313e-13,0.0,0.12339131383194024,1.3079479266185665,0.12339131383194024
0.11730453638261816,299.5755310648626,-36.60296326089442,284.8677358562544,-46.58215120319923,247.29501789159048,-22.530529656848643,37.57271796466392,-24.05162154635059,59.59315618366981,21.300267402986307,225.2745796725846,-67.88241860618554,284.8677358562544,-46.58215120319923,14.707795208608216,9.979187942304813,0.0,0.0,89.47607801779937,-49.78770354778876,73.95224279749239,-19.607511314498694,61.846258857292824,1.5127962561019146,59.59315618366981,21.300267402986307,10,8.844121683468174e-16,625.3618567623275,1.1824727443089239e-15,625.3618567623275,2.220446049250313e-13,0.0,0.1151652262431444,1.2997218390297705,0.1151652262431444
0.11873507950923545,303.5778425296478,-35.06766552275248,287.7897622918257,-45.69737592409663,252.79949534411108,-23.158233186166996,34.990266947714616,-22.539142737929637,62.053590750589386,22.08238241768087,225.7361715412363,-67.77975834177751,287.7897622918257,-45.69737592409663,15.788080237822108,10.629710401344152,0.0,0.0,89.4463417713259,-49.77470944354806,73.85890901995711,-19.582057844250652,62.43092074995329,1.5770089460212233,62.053590750589386,22.08238241768087,10,1.207196311433575e-15,634.7189772205667,1.7925524830890636e-15,634.7189772205667,2.220446049250313e-13,0.0,0.10693913865434834,1.2914957514409746,0.10693913865434834
0.12016562263585275,300.4800124709212,-36.60609444543378,283.5812992119847,-47.89524297749662,250.97814912147032,-26.76255769599888,32.60315009051436,-21.132685281497743,57.6406630795562,20.430436489841725,225.9406361324285,-68.32567946733838,283.5812992119847,-47.89524297749662,16.898713258936542,11.289148532062843,0.0,0.0,90.00333487299137,-50.08730548459557,74.28267144628904,-19.696966484848687,61.65462981314808,1.458592502105894,57.6406630795562,20.430436489841725,10,1.133427092895965e-15,584.886796699616,1.5135971514036795e-15,584.886796699616,1.1102230246251565e-13,0.0,0.09871305106555206,1.2832696638521786,0.09871305106555206
0.12159616576247004,304.2846483537161,-35.11676180266285,286.2455268190409,-47.07338860836046,256.2723149757069,-27.524551982871515,29.973211843334013,-19.548836625488946,60.018039937533004,21.17245043880628,226.22748688150787,-68.24583904716675,286.2455268190409,-47.07338860836046,18.03912153467521,11.956626805697612,0.0,0.0,89.97084999216187,-50.07226771142797,74.18950778837115,-19.67208458042112,62.06712910097487,1.4985132446823357,60.018039937533004,21.17245043880628,10,1.105585116369517e-15,593.0405234298339,1.4767190218514388e-15,593.0405234298339,2.220446049250313e-13,0.0,0.09048696347675622,1.2750435762633825,0.09048696347675622
0.12302670888908733,302.39008600121326,-36.385824631376586,283.1813155997897,-49.01712913509033,255.6763983050839,-30.967101380707533,27.50491729470579,-18.050027754382796,56.51943232058585,19.74323805026787,226.66188327920383,-68.76036718535822,283.1813155997897,-49.01712913509033,19.20877040142356,12.631304503713741,0.0,0.0,90.52597328593431,-50.383420033409564,74.61551640705872,-19.788086891135755,61.52039358621078,1.4111397391871137,56.51943232058585,19.74323805026787,10,1.1697043350708725e-15,547.541295079687,2.045261970677295e-15,547.541295079687,1.1102230246251565e-13,0.0,0.08226087588796038,1.2668174886745864,0.08226087588796038
0.12445725201570464,306.1363744564942,-34.94506717038564,285.72921117764326,-48.25744182446343,260.9028262414392,-31.864808213420076,24.82638493620408,-16.39263361104335,58.842625310467255,20.43084174243237,226.88658586717605,-68.6882835668958,285.72921117764326,-48.25744182446343,20.40716327885092,13.312374654077786,0.0,0.0,90.49090023191253,-50.36643958762917,74.5238581324961,-19.764220317852335,61.871827502767395,1.4423763385857313,58.842625310467255,20.43084174243237,10,1.0900923566863435e-15,554.217307637059,1.3811465260691434e-15,554.217307637059,1.1102230246251565e-13,0.0,0.0740347882991641,1.2585914010857904,0.0740347882991641
0.12588779514232193,304.9581293156092,-36.077892302125704,283.3242876613021,-50.07695525403102,261.04889762337444,-35.27850241538442,22.27539003792765,-14.798452838646597,55.699946297719876,19.088454729293005,227.6243413635822,-69.16540998332401,283.3242876613021,-50.07695525403102,21.63384165430713,13.99906295190532,0.0,0.0,91.04478765485479,-50.67650656119872,74.95823794741983,-19.882347642518475,61.62131576130755,1.3934442203932278,55.699946297719876,19.088454729293005,10,8.880137678353196e-16,513.4403063794838,1.6157465026527553e-15,513.4403063794838,1.1102230246251565e-13,0.0,0.06580870071036804,1.2503653134969945,0.06580870071036804
0.1273183382689392,308.71645131869263,-34.68408509224603,285.8280662757614,-49.3747117582426,266.28067398536945,-36.30927954616209,19.54739229039194,-13.065432212080509,57.91171377277203,19.709808475526387,227.91635250298935,-69.08452023376896,285.8280662757614,-49.3747117582426,22.888385042931237,14.690626665996566,0.0,0.0,91.00746321447603,-50.657812365794136,74.87002734879067,-19.859941721820952,62.03886193972264,1.4332338538461187,57.91171377277203,19.709808475526387,10,1.060466617709089e-15,519.3090134450332,1.9286506332811606e-15,519.3090134450332,2.220446049250313e-13,0.0,0.0575826131215722,1.2421392259081985,0.0575826131215722
0.1287488813955565,309.5728201462762,-35.28024111508137,285.4024092218666,-50.666594647811905,268.4901233720126,-39.293732196430284,16.912285849854015,-11.372862451381621,56.476745665125556,18.861190792171442,228.92566355674103,-69.52778543998335,285.4024092218666,-50.666594647811905,24.170410924409563,15.386353532730542,0.0,0.0,91.5604824463471,-50.96708901866817,75.31471530355893,-19.980330983940974,62.05046580683502,1.4196345626257951,56.476745665125556,18.861190792171442,10,1.2420356090899493e-15,482.1096022096472,2.024585724556137e-15,482.1096022096472,2.220446049250313e-13,0.0,0.04935652553277614,1.2339131383194024,0.04935652553277614
0.13017942452217382,313.73671546493716,-33.846449927119494,288.25714080762606,-49.93201056586014,274.12302533164296,-40.36982258755586,14.134115475983094,-9.56218797830428,58.88620111922248,19.495453462977466,229.3709396884036,-69.42746402883762,288.25714080762606,-49.93201056586014,25.479574657311083,16.08556063874065,0.0,0.0,91.52114141091019,-50.94689553845622,75.23572851323887,-19.96014472882679,62.614069764254545,1.4795762384453894,58.88620111922248,19.495453462977466,10,9.483713745517255e-16,487.50725621258755,1.0608485152716314e-15,487.50725621258755,1.1102230246251565e-13,0.0,0.04113043794398008,1.2256870507306064,0.04113043794398008
0.1316099676487911,312.0697968126101,-35.12722909561978,285.25422744068766,-51.914822389370045,273.84076927157633,-44.14669979684794,11.413458169111323,-7.768122592522104,54.84280132142452,17.956409458018086,230.41142611926313,-69.87123184738812,285.25422744068766,-51.914822389370045,26.815569371922447,16.787593293750266,0.0,0.0,92.07311854570483,-51.25544343073429,75.6937526712081,-20.082867568493945,62.644554902350194,1.4670791518401316,54.84280132142452,17.956409458018086,10,1.4236496617933272e-15,453.30569525666215,8.426567870577714e-16,453.30569525666215,1.1102230246251565e-13,0.0,0.03290435035518402,1.2174609631418103,0.03290435035518402
0.1330405107754084,315.75857926079135,-33.864902879455414,287.58045341829677,-51.35672677435517,278.99593565203486,-45.478937855719124,8.58451776626191,-5.877788918636043,56.653162769305986,18.408658200586373,230.92729064899075,-69.76538497494151,287.58045341829677,-51.35672677435517,28.17812584249459,17.49182389489975,0.0,0.0,92.03184055361837,-51.23389837015143,75.62883751627164,-20.0655019203175,63.26661257910072,1.5340153155274336,56.653162769305986,18.408658200586373,10,8.462092932575218e-16,458.35459737297026,1.3666731334763799e-15,458.35459737297026,1.1102230246251565e-13,0.0,0.02467826276638796,1.2092348755530142,0.02467826276638796
0.13447105390202568,316.523985650162,-34.511159088218214,286.95697331035973,-52.70880987206826,281.1802120777345,-48.72983543265289,5.776761232625233,-3.978974439415367,54.7344282340467,17.46074565273406,232.22254507631305,-70.16955552480233,286.95697331035973,-52.70880987206826,29.56701233980224,18.197650783850044,0.0,0.0,92.58380733859514,-51.542227533069834,76.09218150335569,-20.188943422645806,63.54655623436223,1.5616154309133208,54.7344282340467,17.46074565273406,10,9.36971595674946e-16,426.8895796859155,1.379869943933217e-15,426.8895796859155,1.1102230246251565e-13,0.0,0.01645217517759212,1.2010087879642184,0.01645217517759212
0.135901597028643,320.43458429289154,-33.25560962748219,289.4525498279849,-52.16010672538437,286.5560106525051,-50.15312092894723,2.896539175479802,-2.006985796437135,56.54232986622008,17.882168924070065,232.91021996176482,-70.04227564945441,289.4525498279849,-52.16010672538437,30.982034464906608,18.904497097902183,0.0,0.0,92.54375797664436,-51.520737066746364,76.0362255531376,-20.17282951123397,64.3302364319829,1.651290928525917,56.54232986622008,17.882168924070065,10,9.92320390096308e-16,431.64557031775456,2.1042491962774115e-15,431.64557031775456,1.1102230246251565e-13,0.0,0.00822608758879606,1.1927827003754223,0.00822608758879606
0.1373321401552603,310.53723200009273,-39.07351056989751,297.77814504913226,-47.898712075872936,297.77814504913226,-47.898712075872936,0.0,0.0,63.85948194258267,22.58917149252121,233.9186631065496,-70.48788356839414,297.77814504913226,-47.898712075872936,12.759086950960475,8.825201505975432,0.0,0.0,93.09753840103723,-51.82967898828124,76.49590522922755,-20.29516004354233,64.32521947628477,1.6369554634294516,63.85948194258267,22.58917149252121,11,1.293246548092863e-15,649.3120685498244,2.1108655012103295e-15,649.3120685498244,1.1102230246251565e-13,3.469446951953614e-18,0.0,1.3161740142073626,0.0
0.13876268328187757,314.961062374464,-37.27035632104348,301.2345396254264,-46.69185063558302,259.6110133722611,-20.214033718497262,41.62352625316532,-26.47781691708576,66.74863667521055,23.46418705987154,234.48590295021583,-70.15603769545456,301.2345396254264,-46.69185063558302,13.72652274903762,9.421494314539547,0.0,0.0,92.77780370808644,-51.62407988969497,76.44506916307813,-20.27970747731304,65.26303007905129,1.7477496715534429,66.74863667521055,23.46418705987154,10,1.239581955301087e-15,654.0893777320605,1.698780593694443e-15,654.0893777320605,2.220446049250313e-13,0.0,0.12339131383194024,1.3079479266185667,0.12339131383194024
0.14019322640849488,310.7973469314777,-39.052139978172704,296.07424738690486,-49.079413083829536,256.8586572215568,-23.97602218595088,39.21559016534803,-25.103390897878654,61.30206107803546,21.647338398322027,234.77218630886938,-70.72675148215157,296.07424738690486,-49.079413083829536,14.723099544572822,10.027273105656834,0.0,0.0,93.36453225883278,-51.95351553739571,76.89822805437555,-20.400792537016073,64.50942599566105,1.6275565922602127,61.30206107803546,21.647338398322027,10,9.52807765696559e-16,606.6764376673274,1.5238175952212532e-15,606.6764376673274,1.1102230246251565e-13,0.0,0.11516522624314418,1.2997218390297707,0.11516522624314418
0.14162376953511216,315.15355792516465,-37.54776200295865,299.4051500916503,-48.189535928457786,262.87322157046464,-24.65725715318925,36.53192852118565,-23.532278775268537,63.86702327918739,22.434289058192938,235.5381268124629,-70.62382498665073,299.4051500916503,-48.189535928457786,15.748407833514342,10.641773925499141,0.0,0.0,93.36686319408378,-51.95819211691912,76.84964760500813,-20.38579551233324,65.32161601337097,1.7201626426016503,63.86702327918739,22.434289058192938,10,1.0071883421506892e-15,615.419457083744,1.3209483155118585e-15,615.419457083744,2.220446049250313e-13,0.0,0.10693913865434834,1.2914957514409746,0.10693913865434834
0.14305431266172947,310.6281766509862,-39.40861798059429,293.82610135758745,-50.672882206608335,259.78575651946863,-28.608591907541495,34.04034483811881,-22.06429029906684,58.51660652656062,20.58463071095595,235.30949483102677,-71.25751291756426,293.82610135758745,-50.672882206608335,16.80207529339871,11.264264226014042,0.0,0.0,93.95123309666425,-52.286061612187574,77.29820592151853,-20.50639796882107,64.06005581284401,1.534946663444373,58.51660652656062,20.58463071095595,10,9.679638823173538e-16,568.0368940697581,1.1807535098501309e-15,568.0368940697581,1.1102230246251565e-13,0.0,0.09871305106555206,1.2832696638521786,0.09871305106555206
0.14448485578834674,314.4612103046398,-38.002096178803185,296.57744367382094,-49.896137899845854,265.2739650163518,-29.479664765810014,31.303478657469157,-20.41647313403584,60.814997957816104,21.296464853973085,235.7624457160048,-71.19260275381893,296.57744367382094,-49.896137899845854,17.88376663081887,11.894041721042669,0.0,0.0,93.94842037496313,-52.287353770214224,77.25046148176541,-20.491954279911447,64.56356385927629,1.5867052963067323,60.814997957816104,21.296464853973085,10,1.8034491279513735e-15,575.9633907943982,1.3466173341540181e-15,575.9633907943982,1.1102230246251565e-13,0.0,0.09048696347675622,1.2750435762633827,0.09048696347675622
0.14591539891496405,311.9159125080023,-39.41848593616732,292.92272909673306,-51.948919172315925,264.19641342713504,-33.09733773466172,28.726315669598023,-18.851581437654204,57.01556906031401,19.82024533467259,235.90716003641904,-71.76916450698849,292.92272909673306,-51.948919172315925,18.993183411269218,12.530433236148601,0.0,0.0,94.53043829824801,-52.61360053051669,77.69955451047912,-20.613285485847918,63.67716722769191,1.457721509376121,57.01556906031401,19.82024533467259,10,1.3234730204398109e-15,532.5358546668684,1.5727937255915082e-15,532.5358546668684,1.1102230246251565e-13,0.0,0.08226087588796016,1.2668174886745867,0.08226087588796016
0.14734594204158136,315.55927827065267,-38.074136338436055,295.42921439841285,-51.24692989179695,269.4937957130775,-34.122007682314404,25.935418685335378,-17.12492220948255,59.21962226174011,20.47269001202622,236.2095921366727,-71.71961990382316,295.42921439841285,-51.24692989179695,20.130063872239827,13.172793553360899,0.0,0.0,94.52246094802605,-52.611504553195246,77.65277396378197,-20.59970618852563,64.03435722486469,1.4915908378977178,59.21962226174011,20.47269001202622,10,1.2013203211076014e-15,539.1946174000692,1.4420178821183443e-15,539.1946174000692,2.220446049250313e-13,0.0,0.0740347882991641,1.2585914010857904,0.0740347882991641
0.14877648516819864,314.1028053281877,-39.27387036272496,292.8086226077726,-53.094374614711256,269.53756786102565,-37.63445886708294,23.271054746746927,-15.459915747628315,56.06223294839083,19.148082319314213,236.74638965938175,-72.24245693402545,292.8086226077726,-53.094374614711256,21.294182720415126,13.820504251986293,0.0,0.0,95.10259675437797,-52.93637263486518,78.10775600397193,-20.722751872818037,63.53603690103188,1.416667573657719,56.06223294839083,19.148082319314213,10,1.4174354229220866e-15,500.1704131537164,1.359513305838605e-15,500.1704131537164,2.220446049250313e-13,0.0,0.06580870071036804,1.2503653134969945,0.06580870071036804
0.15020702829481594,317.717936621931,-37.97569546974758,295.23258570811777,-52.4486680163445,274.80700316586,-38.79625718585879,20.425582542257757,-13.652410830485707,58.16508737780441,19.737561329983983,237.06749833031336,-72.18622934632847,295.23258570811777,-52.4486680163445,22.485350913813246,14.47297254659692,0.0,0.0,95.08970479639825,-52.931057196143925,78.06291211249045,-20.710366524532347,63.91488142142464,1.4551943743478049,58.16508737780441,19.737561329983983,10,1.1585483418588377e-15,506.08003370576114,9.403740214280698e-16,506.08003370576114,1.1102230246251565e-13,0.0,0.05758261312157198,1.2421392259081985,0.05758261312157198
0.15163757142143322,318.5028920201366,-38.6080207803501,294.79947659045484,-53.7376509036022,277.12693030671454,-41.85354351055477,17.672546283740303,-11.88410739304743,56.79538935175479,18.91895321480613,238.00408723870007,-72.65660411840835,294.79947659045484,-53.7376509036022,23.703415429681737,15.129630123252102,0.0,0.0,95.66838330951164,-53.254838373143144,78.52650295753249,-20.835431586310598,63.809200971655926,1.4336658410454035,56.79538935175479,18.91895321480613,10,1.2246559807035665e-15,470.4688084468949,1.8094822058468315e-15,470.4688084468949,1.1102230246251565e-13,0.0,0.04935652553277614,1.2339131383194026,0.04935652553277614
0.15306811454805053,322.52809123822925,-37.26413718080671,297.5798322192839,-53.054069155772396,282.8076574757615,-43.06021512228105,14.772174743522385,-9.993854033491345,59.10826136491476,19.524166372945622,238.47157085436913,-72.57823552871807,297.5798322192839,-53.054069155772396,24.94825901894536,15.789931974965679,0.0,0.0,95.6508443071145,-53.24651950135471,78.48639475234756,-20.824651575019033,64.33433179490706,1.492935547655705,59.10826136491476,19.524166372945622,10,1.056203317335452e-15,475.91598972415846,1.0310769109658984e-15,475.91598972415846,2.220446049250313e-13,0.0,0.04113043794398008,1.2256870507306066,0.04113043794398008
0.1544986576746678,321.0517576343584,-38.525494028768264,294.83195768637927,-54.97884926615188,282.9029520637255,-46.85984030703273,11.92900562265379,-8.119008959119157,55.30531720300708,18.059192574348494,239.52664048337215,-73.03804184050038,294.83195768637927,-54.97884926615188,26.21979994797917,16.453355237383615,0.0,0.0,96.22807437499702,-53.569347599243386,78.95959484741296,-20.95162672899901,64.33897126096215,1.4829324877420333,55.30531720300708,18.059192574348494,10,9.960742720614671e-16,443.16793449484965,8.956414369122292e-16,443.16793449484965,1.1102230246251565e-13,0.0,0.03290435035518402,1.2174609631418105,0.03290435035518402
0.1559292008012851,324.632884431907,-37.344899620088015,297.1148927034492,-54.46429764567881,288.1413168163977,-48.32012260780371,8.973575887051481,-6.144175037875101,57.03487315786534,18.485165130175822,240.08001954558387,-72.94946277585467,297.1148927034492,-54.46429764567881,27.517991728457762,17.1193980255908,0.0,0.0,96.20607587060499,-53.558219990391414,78.92722562765904,-20.942796021028144,64.94671804731983,1.5515532355648887,57.03487315786534,18.485165130175822,10,9.182274821576553e-16,448.2615013847068,1.6980076059629937e-15,448.2615013847068,3.3306690738754696e-13,0.0,0.02467826276638796,1.2092348755530145,0.02467826276638796
0.15735974392790242,325.5369196207521,-37.994047440652224,296.69409678474506,-55.78162571357265,290.6553699354953,-51.62221217414145,6.03872684924977,-4.159413539431199,55.259228592337365,17.584174844131013,241.43486819240763,-73.36580055770364,296.69409678474506,-55.78162571357265,28.842822836007034,17.78757827292043,0.0,0.0,96.78294155861751,-53.88064066735455,79.40299749587014,-21.07019586724502,65.24892913792002,1.5850359768959095,55.259228592337365,17.584174844131013,10,1.0418543796081477e-15,418.11102097016,2.2690861186798056e-15,418.11102097016,2.220446049250313e-13,0.0,0.0164521751775919,1.2010087879642184,0.0164521751775919
0.1587902870545197,327.9900705732749,-37.133591793026696,297.79575415491365,-55.59102436562219,294.767541389324,-53.4928031594921,3.0282127655896716,-2.0982212061300913,55.8366339289085,17.69362346082135,241.9591202260052,-73.28464782644357,297.79575415491365,-55.59102436562219,30.194316418361254,18.45743257259549,0.0,0.0,96.7595676446672,-53.868089837360785,79.3735948809385,-21.061784021751777,65.82595770039953,1.6452260326689512,55.8366339289085,17.69362346082135,10,1.3525983761893212e-15,422.90165278671714,1.5871203909154447e-15,422.90165278671714,1.1102230246251565e-13,0.0,0.00822608758879606,1.1927827003754223,0.00822608758879606
0.160220830181137,317.8352477113182,-42.87403892070297,305.3081497314386,-51.556370990039056,305.3081497314386,-51.556370990039056,0.0,0.0,62.48490610370376,22.21823448404171,242.82324362773485,-73.77460547408076,305.3081497314386,-51.556370990039056,12.527097979879583,8.682332069336084,0.0,0.0,97.3378030810394,-54.19091314935046,79.84289010267084,-21.18773194047143,65.64255044402465,1.6040396157411152,62.48490610370376,22.21823448404171,11,1.1268701644017818e-15,638.4128195472583,1.4574913576966578e-15,638.4128195472583,1.1102230246251565e-13,3.469446951953614e-18,0.0,1.3161740142073626,0.0
0.16165137330775428,321.65825246408576,-41.2470926463204,308.21694226816993,-50.49025049585754,264.6805302218063,-22.79553237248126,43.53641204636364,-27.694718123376276,64.97461868274226,22.99088465173049,243.2423235854276,-73.481135147588,308.21694226816993,-50.49025049585754,13.441310195915838,9.243157849537145,0.0,0.0,97.02945146783071,-53.99099545756938,79.81252575252711,-21.179032977134163,66.40034636506981,1.6888932871155191,64.97461868274226,22.99088465173049,10,1.3338515584158749e-15,642.8803960454753,1.884963618336484e-15,642.8803960454753,2.220446049250313e-13,0.0,0.12339131383194024,1.3079479266185667,0.12339131383194024
0.1630819164343716,318.09703991105084,-42.912414226959356,303.71366986521787,-52.72538101420807,262.69700748298186,-26.4690063244511,41.01666238223601,-26.256374689756967,60.0962379159393,21.337042138839195,243.6174319492785,-74.06242315304722,303.71366986521787,-52.72538101420807,14.38337004583295,9.81296678724871,0.0,0.0,97.63938168668889,-54.333579438560186,80.27222942070534,-21.303224992767213,65.70582084188428,1.574381278280157,60.0962379159393,21.337042138839195,10,1.220849670733666e-15,596.8373340102894,8.74132833429968e-16,596.8373340102894,1.1102230246251565e-13,0.0,0.1151652262431444,1.2997218390297707,0.1151652262431444
0.16451245956098887,321.8643140433289,-41.57548412033417,306.5112236040531,-51.96663734084345,268.29917794544394,-27.352091849265207,38.212045658609156,-24.61454549157824,62.3329950455605,22.039625510136055,244.1782285584926,-74.0062628509795,306.5112236040531,-51.96663734084345,15.353090439275752,10.391153220509283,0.0,0.0,97.65413608024029,-54.3448160918199,80.238432999588,-21.293947333243388,66.2856594786643,1.6325005740837923,62.3329950455605,22.039625510136055,10,1.2625728563180767e-15,605.1926023519459,2.476556952037496e-15,605.1926023519459,1.1102230246251565e-13,0.0,0.10693913865434834,1.2914957514409746,0.10693913865434834
0.16594300268760617,319.43806161610814,-43.036706148191676,303.0877424613634,-54.01384287846176,267.48256248660874,-30.935249898941038,35.60517997475466,-23.07859297952072,58.461219758186544,20.558180753076144,244.62652270317687,-74.57202363153795,303.0877424613634,-54.01384287846176,16.35031915474472,10.977136730270084,0.0,0.0,98.26155185927979,-54.685851347190805,80.69172832079005,-21.41719459948296,65.67324252310702,1.53102231513585,58.461219758186544,20.558180753076144,10,1.2494717779642778e-15,559.2672496678483,1.9691624722586147e-15,559.2672496678483,1.1102230246251565e-13,0.0,0.09871305106555206,1.2832696638521786,0.09871305106555206
0.16737354581422348,323.0540025823272,-41.730067131306846,305.6790640202919,-53.30042810465943,272.93554187160333,-31.944756354291968,32.743522148688555,-21.355671750367463,60.6358923701941,21.229934855933273,245.0431716500978,-74.5303629605927,305.6790640202919,-53.30042810465943,17.374938562035293,11.570360973352585,0.0,0.0,98.26899443897486,-54.69248603129836,80.65473183638595,-21.40754459302132,66.11944537473704,1.5696676637269462,60.6358923701941,21.229934855933273,10,1.221436009250387e-15,567.0422949191627,1.560092094635288e-15,567.0422949191627,2.220446049250313e-13,0.0,0.09048696347675622,1.2750435762633825,0.09048696347675622
0.16880408894084076,321.66337170671716,-42.95999851632893,303.23650637139184,-55.13029103452416,273.1890253016354,-35.4117060032994,30.04748106975643,-19.718585031224762,57.54360883439108,19.937699969267193,245.69289753700076,-75.06799100379135,303.23650637139184,-55.13029103452416,18.426865335325324,12.170292518195232,0.0,0.0,98.87365019818134,-55.03176750982496,81.10926020909272,-21.531408396985853,65.70998712972671,1.4951849030194708,57.54360883439108,19.937699969267193,10,1.3033746622993742e-15,524.8561255944032,9.772236062014058e-16,524.8561255944032,8.326672684688674e-14,0.0,0.08226087588796038,1.2668174886745867,0.08226087588796038
0.17023463206745806,325.23365293683815,-41.69238158645554,305.7276027792798,-54.46880127061419,278.5993373994331,-36.556269724892815,27.128265379846653,-17.91253154572138,59.664495316121915,20.559220350321795,246.0631074631579,-75.02802162093599,305.7276027792798,-54.46880127061419,19.50605015755836,12.77641968415865,0.0,0.0,98.87367511351539,-55.03373624137661,81.07152788179273,-21.521985447761267,66.11790446784978,1.5277000682018667,59.664495316121915,20.559220350321795,10,1.1493048297390153e-15,531.502640494771,9.831719867159888e-16,531.502640494771,1.1102230246251565e-13,0.0,0.0740347882991641,1.2585914010857904,0.0740347882991641
0.17166517519407534,325.9565869094912,-42.36923830371193,305.344109492748,-55.75748968882715,281.0028124629089,-39.58657781888829,24.341297029839097,-16.170911869938863,58.36207208209437,19.773287168327748,246.98203741065356,-75.53077685715485,305.344109492748,-55.75748968882715,20.612477416743225,13.38825138511522,0.0,0.0,99.47585540487475,-55.37138643852829,81.5336067805726,-21.647729480615254,65.97257522520621,1.4883390619886683,58.36207208209437,19.773287168327748,10,1.369371565554891e-15,493.5149419525252,1.340618637519709e-15,493.5149419525252,1.6653345369377348e-13,0.0,0.06580870071036804,1.2503653134969945,0.06580870071036804
0.17309571832069265,329.90628019833105,-41.049634077050385,308.16011530356917,-55.054950055056196,286.7957851370547,-40.77509405460404,21.364330166514492,-14.279856000452156,60.726274452098224,20.420447790525238,247.43384085147085,-75.47539784558134,308.16011530356917,-55.054950055056196,21.74616489476188,14.005315978005815,0.0,0.0,99.46866937999992,-55.36881831512933,81.49754702954976,-21.63910472784449,66.46762444192116,1.532525197392495,60.726274452098224,20.420447790525238,10,8.719063359796994e-16,499.45530150156173,1.6561760938950805e-15,499.45530150156173,1.1102230246251565e-13,0.0,0.0575826131215722,1.2421392259081985,0.0575826131215722
0.17452626144730995,328.52974553117457,-42.35653326469126,305.62258208192543,-56.983693381696895,287.1377263323654,-44.55334518334092,18.48485574956004,-12.430348198355972,57.10029835338584,18.97442545131195,248.52228372853958,-75.95811883300885,305.62258208192543,-56.983693381696895,22.907163449249154,14.627160117005637,0.0,0.0,100.068715090766,-55.705060099007795,81.96850492175572,-21.76695673003396,66.48506371601782,1.5138979960329308,57.10029835338584,18.97442545131195,10,1.0122582218395786e-15,464.77323536427326,1.2651401312593132e-15,464.77323536427326,2.220446049250313e-13,0.0,0.04935652553277592,1.2339131383194024,0.04935652553277592
0.17595680457392723,332.043454947263,-41.200328172896576,307.9478982581845,-56.45367578679708,292.4976807707821,-46.001109274735,15.450217487402426,-10.452566512062077,58.89228052503956,19.436424802288776,249.05561773314497,-75.89010058908585,307.9478982581845,-56.45367578679708,24.09555668907849,15.253347613900505,0.0,0.0,100.05459880571729,-55.698163612337474,81.93976760224882,-21.759930634806466,67.06125132517887,1.5679936580581142,58.89228052503956,19.436424802288776,10,9.232059094941672e-16,470.25985866270656,1.5945239804144756e-15,470.25985866270656,2.220446049250313e-13,0.0,0.04113043794398008,1.2256870507306066,0.04113043794398008
0.17738734770054454,332.94079568788453,-41.88883599561093,307.62933504392504,-57.772294300847705,295.15264021566145,-49.28052449200703,12.47669482826359,-8.491769808840672,57.27897158629816,18.570639973199313,250.35036345762683,-76.342934274047,307.62933504392504,-57.772294300847705,25.311460643959467,15.883458305236774,0.0,0.0,100.65252377887288,-56.03311417209018,82.4219329721076,-21.889907044285813,67.27590670664637,1.5800869423289825,57.27897158629816,18.570639973199313,10,9.483354350520431e-16,438.35550192404133,1.827079289322468e-15,438.35550192404133,1.1102230246251565e-13,0.0,0.03290435035518402,1.2174609631418103,0.03290435035518402
0.17881789082716182,336.69533662044773,-40.72520425176121,310.1403131918262,-57.24229117853113,300.75562899192835,-50.816633142767444,9.384684199897833,-6.425658035763689,59.11161694258338,19.010744846422973,251.02869624924278,-76.2530360249541,310.1403131918262,-57.24229117853113,26.55502342862157,16.517086926769924,0.0,0.0,100.63175639778062,-56.022119500753305,82.4044181171047,-21.884971522220738,67.99252173435748,1.654054998019923,59.11161694258338,19.010744846422973,10,1.150322343268574e-15,443.48786157262646,1.3753965884616481e-15,443.48786157262646,1.1102230246251565e-13,0.0,0.02467826276638818,1.2092348755530145,0.02467826276638818
0.18024843395377912,335.8966416696678,-41.830590493228755,308.07021676763674,-58.98443248893079,301.75471689800685,-54.63438085165157,6.315499869629889,-4.350051637279222,55.82184312468583,17.732788593327456,252.2483736429509,-76.71722108225826,308.07021676763674,-58.98443248893079,27.826424902031068,17.15384199570204,0.0,0.0,101.22913164692224,-56.356519344948595,82.88939650001852,-22.015247027790195,68.12984549601015,1.6545452904805273,55.82184312468583,17.732788593327456,10,8.072689436064341e-16,414.0927662433973,1.7776691421256706e-15,414.0927662433973,1.1102230246251565e-13,0.0,0.0164521751775919,1.2010087879642184,0.0164521751775919
0.1816789770803964,339.5873237874514,-40.7237926798408,310.4614474653962,-58.517137381003295,307.29485046925566,-56.32303105296734,3.1665969961405267,-2.194106328035957,57.44568350469577,18.09665497335731,253.01576396070038,-76.61379235436056,310.4614474653962,-58.517137381003295,29.125876322055177,17.793344701162496,0.0,0.0,101.20567792346314,-56.34318445460907,82.8771721866605,-22.010537699011543,68.93291385057675,1.7399297992600395,57.44568350469577,18.09665497335731,10,1.1295170059945201e-15,418.9180079667174,1.316926032849927e-15,418.9180079667174,2.220446049250313e-13,0.0,0.00822608758879606,1.1927827003754223,0.00822608758879606
0.1831095202070137,329.21531173704574,-46.39481262840864,317.2173237995135,-54.71007796716768,317.2173237995135,-54.71007796716768,0.0,0.0,63.42804621296153,22.431296466657535,253.78927758655198,-77.1413744338252,317.2173237995135,-54.71007796716768,11.997987937532208,8.31526533875904,0.0,0.0,101.804924741493,-56.67813959030474,83.35651287478447,-22.13911533826395,68.62783997027452,1.6758804947434456,63.42804621296153,22.431296466657535,11,8.699743261728464e-16,636.6911750770483,1.2973460973032107e-15,636.6911750770483,1.1102230246251565e-13,3.469446951953614e-18,0.0,1.3161740142073626,0.0
0.18454006333363102,332.8959866841899,-44.857060918306544,320.0355461976822,-53.69894655042552,274.48704302019536,-24.72416756482818,45.54850317748685,-28.97477898559734,65.79450694955908,23.158974949720623,254.24103924812314,-76.85792150014616,320.0355461976822,-53.69894655042552,12.860440486507663,8.841885632118972,0.0,0.0,101.49964423048988,-56.47946998754561,83.34617088681078,-22.134064215912126,69.39522413082248,1.7556127033115771,65.79450694955908,23.158974949720623,10,1.095044185854319e-15,641.015891603878,1.0187242883039813e-15,641.015891603878,2.220446049250313e-13,0.0,0.12339131383194024,1.3079479266185665,0.12339131383194024
0.1859706064602483,329.4764888935673,-46.51197248126676,315.7260662494332,-55.88959432742237,272.8164006565555,-28.42132437700144,42.90966559287767,-27.468269950420932,61.077726081807896,21.56537522563879,254.64834016762535,-77.45496955306122,315.7260662494332,-55.88959432742237,13.750422644134092,9.377621846155613,0.0,0.0,102.12938640801467,-56.833234775722964,83.81814149909391,-22.260863671001204,68.70081226051674,1.639128893662992,61.077726081807896,21.56537522563879,10,1.0886362908867433e-15,595.4296093647298,1.5678423109039212e-15,595.4296093647298,1.1102230246251565e-13,0.0,0.1151652262431444,1.2997218390297707,0.1151652262431444
0.1874011495868656,333.1144501049116,-45.252440498760194,318.4465059932379,-55.174437260567316,278.47755028392737,-29.428126349774743,39.968955709310535,-25.746310910792573,63.212420044317554,22.228608439521835,255.2340859489204,-77.4030457000892,318.4465059932379,-55.174437260567316,14.667944111673714,9.92199676180712,0.0,0.0,102.14085027860972,-56.841574875510844,83.80760098155773,-22.255371937504933,69.28563468875294,1.6939011129265822,63.212420044317554,22.228608439521835,10,1.1756671553439615e-15,603.6217245674557,9.84137152368093e-16,603.6217245674557,1.1102230246251565e-13,0.0,0.10693913865434834,1.2914957514409746,0.10693913865434834
0.18883169271348288,330.8771853988521,-46.68819327841754,315.26413895558505,-57.16274550930899,278.0238364882033,-33.02425361720293,37.24030246738175,-24.13849189210606,59.534851430520035,20.81818137820335,255.72928752506502,-77.98092688751234,315.26413895558505,-57.16274550930899,15.613046443267017,10.474552230891451,0.0,0.0,102.76911726847416,-57.194315739697274,84.27474000459326,-22.381182512114798,68.68543025199759,1.594571364299746,59.534851430520035,20.81818137820335,10,1.7163444081969322e-15,558.2060532476224,1.234365336264809e-15,558.2060532476224,8.326672684688674e-14,0.0,0.09871305106555228,1.2832696638521786,0.09871305106555228
0.19026223584010019,334.371808486922,-45.45262993890246,317.78600576921576,-56.4874779899701,283.54532807637963,-34.15534115103904,34.24067769283613,-22.332136838931063,61.612201846519156,21.453032411563306,256.1738039226966,-77.94051040153342,317.78600576921576,-56.4874779899701,16.585802717706272,11.03484805106764,0.0,0.0,102.77204838294996,-57.197340321222576,84.26335534482484,-22.37547446165791,69.13840019492179,1.632304381347069,61.612201846519156,21.453032411563306,10,1.0226002759461217e-15,565.9449022244395,1.5320335438251496e-15,565.9449022244395,3.3306690738754696e-13,0.0,0.09048696347675622,1.2750435762633825,0.09048696347675622
0.19169277896671746,333.11797471636106,-46.66600558200158,315.5316575098092,-58.26846643094893,284.1115987485191,-37.64911905149421,31.42005876129008,-20.619347379454723,58.677608594344676,20.222069453375916,256.85404891546455,-78.49053588432491,315.5316575098092,-58.26846643094893,17.58631720655186,11.60246084894735,0.0,0.0,103.39840271891086,-57.5487688120797,84.73048509080684,-22.50144263267142,68.72516110574684,1.5596755604262214,58.677608594344676,20.222069453375916,10,1.229666488990055e-15,524.1718912772075,1.0013872421230057e-15,524.1718912772075,1.1102230246251565e-13,0.0,0.08226087588796038,1.2668174886745867,0.08226087588796038
0.19312332209333477,336.5696364623453,-45.46294408380928,317.9549114234092,-57.63992705555327,289.5935656905821,-38.91321246114592,28.36134573282709,-18.726714594407355,60.7041032745597,20.80931210590122,257.2508081488495,-78.44923916145446,317.9549114234092,-57.63992705555327,18.61472503893604,12.176982971743989,0.0,0.0,103.39234231851144,-57.54625580646438,84.71881131325547,-22.495925948330118,69.13965451708262,1.5929425933400267,60.7041032745597,20.80931210590122,10,9.807620933941397e-16,530.8551659302559,1.6345504396816933e-15,530.8551659302559,3.3306690738754696e-13,0.0,0.07403478829916432,1.2585914010857904,0.07403478829916432
0.19455386521995208,337.3368546582126,-46.144805601132106,317.66566279484624,-58.90282698894555,292.2187491777724,-41.99740987370873,25.446913617073847,-16.905417115236816,59.48552286168955,20.06242956641242,258.18013993315674,-78.96525655535801,317.66566279484624,-58.90282698894555,19.67119186336635,12.758021387813445,0.0,0.0,104.01693585803673,-57.896434580587794,85.19001975242992,-22.622879580550013,68.97318432269005,1.5540576057798248,59.48552286168955,20.06242956641242,10,1.0018708858419036e-15,493.1861117440026,1.4261823907571852e-15,493.1861117440026,1.1102230246251565e-13,0.0,0.06580870071036804,1.2503653134969945,0.06580870071036804
0.19598440834656936,341.1670219080156,-44.88320833366424,320.41110840120365,-58.22840493007581,298.08180479489533,-43.30357193547201,22.329303606308315,-14.924832994603804,61.761816360788764,20.67863623615372,258.64929204041493,-78.90704116622959,320.41110840120365,-58.22840493007581,20.75591350681198,13.345196596411569,0.0,0.0,104.0017828070538,-57.88837195635868,85.17886095171107,-22.617906958327687,69.46864828165005,1.599237748456801,61.761816360788764,20.67863623615372,10,1.0351382264325233e-15,499.18512691946216,3.047402510974536e-15,499.18512691946216,2.220446049250313e-13,0.0,0.0575826131215722,1.2421392259081985,0.0575826131215722
0.19741495147318666,339.93494727225925,-46.16562070640934,318.06583164093513,-60.103762253373105,298.74644488211203,-47.11222732301076,19.3193867588231,-12.991534930362349,58.322525217825664,19.29865569935663,259.74330642310946,-79.40241795272973,318.06583164093513,-60.103762253373105,21.86911563132413,13.938141546963763,0.0,0.0,104.62493603871046,-58.23751486685667,85.65555512204367,-22.74600465063422,69.4628152623553,1.581101564761184,58.322525217825664,19.29865569935663,10,1.2792120284560335e-15,464.7760411549508,1.1179491263394638e-15,464.7760411549508,1.1102230246251565e-13,0.0,0.04935652553277614,1.2339131383194024,0.04935652553277614
0.19884549459980394,343.33632205324153,-45.05990577688782,320.3252686648287,-59.59640634500394,304.1818819175536,-48.67489335186855,16.143386747275088,-10.921512993135394,60.039393504686885,19.73344041395348,260.28587516014187,-79.32984675895749,320.3252686648287,-59.59640634500394,23.011053388412833,14.536500568116129,0.0,0.0,104.60073873214083,-58.22400177001812,85.64792036639527,-22.742047823451486,70.03721606160578,1.636202834512119,60.039393504686885,19.73344041395348,10,9.53871730556327e-16,470.3247028900036,1.0302144699504787e-15,470.3247028900036,8.326672684688674e-14,0.0,0.0411304379439803,1.2256870507306066,0.0411304379439803
0.20027603772642125,344.29288461990893,-45.74839150610478,320.1108735485377,-60.88831981291659,307.0745251711555,-52.0156455414743,13.036348377382183,-8.872674271442293,58.52551238369683,18.906745086944603,261.58536116484083,-79.79506489986116,320.1108735485377,-60.88831981291659,24.182011071371242,15.139928306811811,0.0,0.0,105.22250048312739,-58.57224412392742,86.13150821898168,-22.871262102076166,70.23135246273179,1.6484413261423896,58.52551238369683,18.906745086944603,10,1.209548415585514e-15,438.6579722553439,1.070011376726268e-15,438.6579722553439,3.3306690738754696e-13,0.0,0.03290435035518402,1.2174609631418103,0.03290435035518402
0.20170658085303855,347.94466911196156,-44.62708402304813,322.56236734625224,-60.375172700661096,312.75964222757904,-53.66328496808251,9.802725118673209,-6.711887732578589,60.296443637961104,19.323634100102034,262.2659237082911,-79.69880680076307,322.56236734625224,-60.375172700661096,25.3823017657093,15.748088677612968,0.0,0.0,105.18930996075957,-58.55340449384603,86.13030505350922,-22.868713019636843,70.94630869402233,1.7233107127197584,60.296443637961104,19.323634100102034,10,1.2879395318113464e-15,443.8508803602249,9.691087782757975e-16,443.8508803602249,2.220446049250313e-13,0.0,0.02467826276638796,1.2092348755530142,0.02467826276638796
0.20313712397965583,348.42059569735363,-45.44093613081188,321.8083286995253,-61.801589953278324,315.2114812239238,-57.25774925769801,6.596847475601521,-4.543840695580315,58.16021632580788,18.349801560677307,263.6481123737174,-80.15139151395563,321.8083286995253,-61.801589953278324,26.61226699782832,16.360653822466443,0.0,0.0,105.8103678175803,-58.901128198916844,86.61489597952959,-22.997894941552772,71.22284857660753,1.7476316265139857,58.16021632580788,18.349801560677307,10,8.439140733042493e-16,414.65541606369,1.8797223919188466e-15,414.65541606369,2.220446049250313e-13,0.0,0.01645217517759212,1.2010087879642184,0.01645217517759212
0.20456766710627314,352.0789964187296,-44.3647380933259,324.2067200366896,-61.342041174418114,320.9001331274588,-59.05093716749366,3.306586909230816,-2.2911040069244564,59.74296641342309,18.69032927173869,264.4637536232665,-80.03237044615682,324.2067200366896,-61.342041174418114,27.87227638204004,16.977303081092213,0.0,0.0,105.7704293697337,-58.877994751511736,86.616185651345,-22.995627651994837,72.0771386021878,1.8412519573497548,59.74296641342309,18.69032927173869,10,8.856636988637667e-16,419.5380077760938,2.308085873112223e-15,419.5380077760938,1.1102230246251565e-13,0.0,0.00822608758879606,1.1927827003754223,0.00822608758879606
0.20599821023289042,343.7731082932909,-49.4600985663835,332.5316521896383,-57.23490807466871,332.5316521896383,-57.23490807466871,0.0,0.0,66.92015287505524,23.284079477322464,265.6114993145831,-80.51898755199122,332.5316521896383,-57.23490807466871,11.241456103652567,7.774809508285206,0.0,0.0,106.39192847638348,-59.225759084539085,87.0949024270804,-23.12344225099254,72.1246684111192,1.8302137835404224,66.92015287505524,23.284079477322464,11,1.1734833528284691e-15,644.0730063318921,1.1994652450721908e-15,644.0730063318921,1.1102230246251565e-13,6.938893903907228e-18,0.0,1.3161740142073626,0.0
0.20742875335950772,347.88056044739966,-47.84523306466956,335.82435455993675,-56.11557201158712,288.28984676333937,-25.878170158741312,47.53450779659738,-30.237401852845807,69.54561972980282,24.049818954134494,266.27873483013394,-80.16539096572161,335.82435455993675,-56.11557201158712,12.056205887462923,8.270338946917558,0.0,0.0,106.02970130446803,-58.99139879050236,87.0951248779502,-23.1208590888063,73.15390864771571,1.94686691358703,69.54561972980282,24.049818954134494,10,1.2636744885391153e-15,648.4118821416374,1.5708526360490205e-15,648.4118821416374,2.220446049250313e-13,0.0,0.12339131383194024,1.3079479266185665,0.12339131383194024
0.208859296486125,343.8733969013697,-49.665400048265575,330.9744831227524,-58.44098564106213,286.1966200434632,-29.777407735525458,44.777863079289205,-28.66357790553667,64.29944236225545,22.34087261160151,266.6750407604969,-80.78185825266361,330.9744831227524,-58.44098564106213,12.898913778617285,8.775585592796553,0.0,0.0,106.68165287668388,-59.358260060367385,87.56613067924683,-23.247264898963884,72.42725720456626,1.8236667066676304,64.29944236225545,22.34087261160151,10,9.653316487663175e-16,602.3915541335724,1.121326144984669e-15,602.3915541335724,1.1102230246251565e-13,0.0,0.1151652262431444,1.2997218390297707,0.1151652262431444
0.2102898396127423,347.91122870141663,-48.377841899870354,334.14146992330325,-57.66801386191233,292.4389802297454,-30.80551717898956,41.70248969355782,-26.862496682922767,66.57200810653276,23.014646721760855,267.5694618167705,-80.6826605836732,334.14146992330325,-57.66801386191233,13.76975877811337,9.290171962041974,0.0,0.0,106.67783332128319,-59.358715498383674,87.56297419836038,-23.244122603741317,73.32865429712696,1.9201775184517942,66.57200810653276,23.014646721760855,10,1.2385959749236483e-15,610.6491901797657,1.601579136868974e-15,610.6491901797657,2.220446049250313e-13,0.0,0.10693913865434834,1.2914957514409746,0.10693913865434834
0.2117203827393596,343.86127889083724,-50.1979944785777,329.1923302425561,-60.011728392965125,290.33879149872854,-34.82794802913375,38.853538743827585,-25.183780363831374,61.66048800573096,21.341292232699658,267.5318422368252,-81.35302062566475,329.1923302425561,-60.011728392965125,14.668948648281091,9.813733914387425,0.0,0.0,107.32667014678742,-59.72389684959749,88.02944316072089,-23.36995896565653,72.17572892931683,1.7408351895892835,61.66048800573096,21.341292232699658,10,1.1118658000362807e-15,564.7979466684827,9.48175972968256e-16,564.7979466684827,1.1102230246251565e-13,0.0,0.09871305106555206,1.2832696638521783,0.09871305106555206
0.2131509258659769,347.40293544275806,-48.99029888550264,331.8062158617986,-59.336218489960004,296.0895096602526,-36.04169590155294,35.716706201546,-23.294522588407062,63.68150080664703,21.948303524993513,268.1247150551515,-81.28452201495352,331.8062158617986,-59.336218489960004,15.596719580959492,10.345919604457363,0.0,0.0,107.30910600395671,-59.716084219359544,88.0227047638373,-23.366393664363855,72.79290428735753,1.7979558687698614,63.68150080664703,21.948303524993513,10,1.374864444220532e-15,572.6387757181941,1.6784575706259806e-15,572.6387757181941,2.220446049250313e-13,0.0,0.09048696347675622,1.2750435762633825,0.09048696347675622
0.2145814689925942,345.30128247358783,-50.37433958467056,328.7479466089956,-61.260728027973386,295.97468440573465,-39.753565644381325,32.77326220326097,-21.50716238359206,60.29740973446923,20.639647407485725,268.4505368745264,-81.90037543545907,328.7479466089956,-61.260728027973386,16.553335864592217,10.886388443302826,0.0,0.0,107.95436151324321,-60.07924070829883,88.49080148651441,-23.492943704561483,72.00537387476878,1.67180897740122,60.29740973446923,20.639647407485725,10,1.2662885292353082e-15,530.432413277909,9.484331234603113e-16,530.432413277909,2.220446049250313e-13,0.0,0.08226087588796016,1.2668174886745864,0.08226087588796016
0.21601201211921148,348.6623073861295,-49.211742821493246,331.1232178358545,-60.6465528918049,301.54771185286626,-41.11830358433116,29.57550598298826,-19.528249307473743,62.23484490079076,21.195505806644675,268.8883729350638,-81.84205869844959,331.1232178358545,-60.6465528918049,17.539089550274984,11.434810070311652,0.0,0.0,107.92317056346292,-60.06318483516631,88.48189718529146,-23.489342570077845,72.48330518630938,1.7104687067945932,62.23484490079076,21.195505806644675,10,1.2974166253297475e-15,537.2257228729436,1.1921714144167501e-15,537.2257228729436,1.1102230246251565e-13,0.0,0.07403478829916432,1.2585914010857904,0.07403478829916432
0.21744255524582878,349.0165274660813,-49.97870076929553,330.4622273493206,-61.96956410488784,303.9265765822214,-44.340968311773565,26.535650767099185,-17.628595793114272,60.87395820937561,20.435672203614253,269.588269139945,-82.40523630850211,330.4622273493206,-61.96956410488784,18.554300116760736,11.990863335592312,0.0,0.0,108.56487248073341,-60.424277512229324,88.95614585441882,-23.61749275166715,72.06725080479275,1.6365339553943627,60.87395820937561,20.435672203614253,10,9.371167472699478e-16,499.1387227082189,9.494365674004589e-16,499.1387227082189,1.1102230246251565e-13,0.0,0.06580870071036804,1.2503653134969945,0.06580870071036804
0.21887309837244606,352.7249210080173,-48.75147091514248,333.1256068736171,-61.30570620805827,309.84771695290635,-45.74691833079996,23.27788992071072,-15.558787877258311,63.08506137042922,21.028044320651283,270.0405455031879,-82.33375052870963,333.1256068736171,-61.30570620805827,19.59931413440024,12.55423529291579,0.0,0.0,108.52046513160538,-60.4001943470268,88.94631036774648,-23.614160969342898,72.57377000383605,1.6806047876600942,63.08506137042922,21.028044320651283,10,1.4765083290978596e-15,505.24463398246064,1.2900100768191616e-15,505.24463398246064,2.220446049250313e-13,0.0,0.0575826131215722,1.2421392259081985,0.0575826131215722
0.22030364149906337,351.45939415940364,-50.042043295611954,330.78488923143374,-63.166663498899425,310.6450182987238,-49.62343264177434,20.139870932709925,-13.543230857125081,59.73872324000291,19.68914083991931,271.0461659914308,-82.85580433881876,330.78488923143374,-63.166663498899425,20.67450492796992,13.12462020328747,0.0,0.0,109.15874576840153,-60.759309092681164,89.42711924894519,-23.743943112345406,72.46030097408415,1.64744786620777,59.73872324000291,19.68914083991931,10,1.0229628617214073e-15,470.43781260093505,1.0726507954808869e-15,470.43781260093505,2.220446049250313e-13,0.0,0.04935652553277614,1.2339131383194024,0.04935652553277614
0.22173418462568067,354.7539795767336,-48.960168463831764,332.97370733842246,-62.66188701304097,316.15033830761905,-51.28037254407255,16.823369030803406,-11.381514468968419,61.411195320053594,20.105340527904758,271.5625120183688,-82.7672275409457,332.97370733842246,-62.66188701304097,21.780272238311177,13.701718549209206,0.0,0.0,109.10162142367301,-60.72751000446064,89.42017402296169,-23.74135102095326,73.04071657173415,1.7016334844681893,61.411195320053594,20.105340527904758,10,1.346808866356467e-15,476.08796162242515,8.651867518968856e-16,476.08796162242515,1.1102230246251565e-13,0.0,0.04113043794398008,1.2256870507306064,0.04113043794398008
0.22316472775229795,355.74126648237194,-49.65333360949902,332.82422459969007,-63.938569669182215,319.2387515031015,-54.6921694340306,13.585473096588544,-9.246400235151611,59.97230223989968,19.309049117536418,272.85192235979036,-83.24761878671865,332.82422459969007,-63.938569669182215,22.917041882681865,14.285236059683193,0.0,0.0,109.73639071625897,-61.08468224234814,89.90880589453447,-23.872691827989904,73.20672574899693,1.709755283619394,59.97230223989968,19.309049117536418,10,7.995615768702097e-16,444.0405221694452,1.953559469171897e-15,444.0405221694452,1.1102230246251565e-13,0.0,0.03290435035518402,1.2174609631418103,0.03290435035518402
0.22459527087891526,359.3175786762731,-48.543856131150235,335.2323132625806,-63.418738877150446,325.0205251852176,-56.426773384229534,10.211788077362996,-6.991965492920912,61.715571824950565,19.71194402791977,273.51674143763,-83.1306829050702,335.2323132625806,-63.418738877150446,24.0852654136925,14.874882746000212,0.0,0.0,109.66710495579497,-61.04553647733914,89.90735839622788,-23.87108425246742,73.94227808560713,1.785937824736365,61.715571824950565,19.71194402791977,10,1.131258142306001e-15,449.3295891730835,1.5261937961555532e-15,449.3295891730835,1.1102230246251565e-13,0.0,0.02467826276638796,1.2092348755530142,0.02467826276638796
0.22602581400553254,359.89181609608124,-49.35108835745004,334.6063963194028,-64.82146030580006,327.73416890024004,-60.08794247390978,6.872227419162755,-4.733517831890282,59.67262881587611,18.77047456374197,274.9337675035266,-83.59193486954197,334.6063963194028,-64.82146030580006,25.28541977667847,15.470371948350023,0.0,0.0,110.30010226339917,-61.40155071122658,90.39601589464729,-24.00228213895133,74.23764934548011,1.811897980635969,59.67262881587611,18.77047456374197,10,8.663979053410824e-16,419.76708604688,1.3337829449896295e-15,419.76708604688,1.1102230246251565e-13,0.0,0.01645217517759212,1.2010087879642184,0.01645217517759212
0.22745635713214984,363.50579572518666,-48.27634972798597,336.9877887598531,-64.34776912127214,333.5446189305897,-61.962028274301645,3.443169829263411,-2.385740846970492,61.23798453911694,19.099864189687665,275.7498042207362,-83.44763331095982,336.9877887598531,-64.34776912127214,26.51800696533353,16.071419393286167,0.0,0.0,110.22319666480928,-61.357093239711986,90.3936971893383,-23.99960931143906,75.1329103665886,1.9090692401912577,61.23798453911694,19.099864189687665,10,1.03087292214794e-15,424.7408689715314,1.8950107709392524e-15,424.7408689715314,1.1102230246251565e-13,0.0,0.00822608758879606,1.1927827003754223,0.00822608758879606
0.22888690025876712,355.71126440322456,-53.15895455609454,345.3820093603949,-60.27486759719059,345.3820093603949,-60.27486759719059,0.0,0.0,68.41966973979206,23.66389783711145,276.96233962060285,-83.93876543430204,345.3820093603949,-60.27486759719059,10.32925504282966,7.115913041096051,0.0,0.0,110.85713959657292,-61.71316689288055,90.8746556236593,-24.12879670322485,75.2305444003706,1.903198161803374,68.41966973979206,23.66389783711145,11,1.8454379604345967e-15,660.8761445446432,1.5750606903804042e-15,660.8761445446432,1.1102230246251565e-13,3.469446951953614e-18,0.0,1.3161740142073626,0.0
0.23031744338538443,359.7822717924748,-51.60674331762114,348.6809972192738,-59.19086424950592,299.0920492673802,-27.645933391067388,49.5889479518936,-31.544930858438534,70.98546047980368,24.406442451860556,277.6955367394702,-83.59730670136649,348.6809972192738,-59.19086424950592,11.101274573200962,7.584120931884787,0.0,0.0,110.51780148748482,-61.496363340840475,90.8683519774272,-24.124530758549987,76.30938327455814,2.0235873980239845,70.98546047980368,24.406442451860556,10,1.1569261098154353e-15,665.3929649771774,1.8187958852207547e-15,665.3929649771774,2.220446049250313e-13,0.0,0.12339131383194024,1.3079479266185665,0.12339131383194024
0.23174798651200174,355.91787898016065,-53.41008640269637,344.01565815781186,-61.4730566341467,297.3056460458138,-31.572040239413127,46.71001211199808,-29.901016394733574,65.85738353171732,22.740628684680964,278.1582746260945,-84.21368531882763,344.01565815781186,-61.4730566341467,11.90222082234882,8.06297023145033,0.0,0.0,111.17676645864317,-61.8677946165502,91.34088553367256,-24.251826085121742,75.64062263377879,1.905935382844298,65.85738353171732,22.740628684680964,10,1.130880284048927e-15,618.0116754398956,1.3883866191024328e-15,618.0116754398956,1.1102230246251565e-13,0.0,0.11516522624314418,1.2997218390297705,0.11516522624314418
0.23317852963861901,359.8853961911678,-52.126093030175056,347.1529786538468,-60.678251787750895,303.68140970942613,-32.67582730357665,43.47156894442065,-28.00242448417424,68.0932508506204,23.397231179898995,279.0597278032264,-84.07548296764986,347.1529786538468,-60.678251787750895,12.732417537320993,8.552158757575837,0.0,0.0,111.12206348927616,-61.83725394027029,91.32913792613826,-24.245957543869622,76.60852638781199,2.007728516490033,68.0932508506204,23.397231179898995,10,9.908544324041208e-16,626.5778804198208,9.496143703759075e-16,626.5778804198208,2.220446049250313e-13,0.0,0.10693913865434834,1.2914957514409746,0.10693913865434834
0.23460907276523632,355.8722465036628,-53.94780641926948,342.2800320882762,-62.999199010649676,301.7806364650196,-36.74827469205928,40.49939562325659,-26.250924318590393,63.22652666245058,21.75228853972768,279.0535054258257,-84.7514875503774,342.2800320882762,-62.999199010649676,13.592214415386584,9.051392591380191,0.0,0.0,111.77969537621094,-62.207772674925124,91.79673869467906,-24.372285879590933,75.47707135493565,1.8285710041386736,63.22652666245058,21.75228853972768,10,1.2220101163496464e-15,579.2994139117857,1.306500289570223e-15,579.2994139117857,1.1102230246251565e-13,0.0,0.09871305106555206,1.2832696638521783,0.09871305106555206
0.2360396158918536,359.34102029627644,-52.742901721364525,344.85903351043265,-62.30328683370337,307.65540139604656,-38.03878873409735,37.203632114386096,-24.264498099606016,65.20801641761977,22.34186776768574,279.65101709281294,-84.64515460138918,344.85903351043265,-62.30328683370337,14.481986785843773,9.560385112338842,0.0,0.0,111.71336762166301,-62.17014953076645,91.77970673974009,-24.36513413808818,76.1579427314098,1.8901290674654732,65.20801641761977,22.34186776768574,10,9.544189704557084e-16,587.3929742538479,1.7625947443907294e-15,587.3929742538479,1.249000902703301e-13,0.0,0.09048696347675622,1.2750435762633825,0.09048696347675622
0.2374701590184709,357.2620602830972,-54.12949240427615,341.8599249927067,-64.2083484476851,307.72392071795286,-41.80672354083595,34.136004274753816,-22.40162490684915,61.86947621284058,21.060937983859233,279.9904487798661,-85.26928643154429,341.8599249927067,-64.2083484476851,15.402135290390483,10.078856043408951,0.0,0.0,112.3692239088662,-62.539470675787015,92.24749030644611,-24.491633287426183,75.3737345645538,1.761817531668882,61.86947621284058,21.060937983859233,10,1.4527511927043836e-15,543.8606401820686,2.1349850825252003e-15,543.8606401820686,2.220446049250313e-13,0.0,0.08226087588796016,1.2668174886745864,0.08226087588796016
0.2389007021450882,360.54259458054656,-52.96780533984055,344.1895090187175,-63.57433584608282,313.40587511411087,-43.24828788063914,30.78363390460663,-20.326047965443678,63.7687084936133,21.600599672376802,280.4208005251042,-85.17493551845959,344.1895090187175,-63.57433584608282,16.353085561829076,10.606530506242267,0.0,0.0,112.29066380613864,-62.494477026923164,92.22632120559473,-24.48365675578077,75.90381551337083,1.8031982642443296,63.7687084936133,21.600599672376802,10,1.3998215101580487e-15,550.8449327454814,1.3253482130909874e-15,550.8449327454814,1.3877787807814457e-13,0.0,0.0740347882991641,1.2585914010857904,0.0740347882991641
0.2403312452717055,360.8924130260143,-53.74461834766674,343.5571251251583,-64.88775643413595,315.93852273791424,-46.53963986094021,27.61860238724404,-18.34811657319574,62.43280075656107,20.859817885823965,281.1243243685972,-85.74757431995995,343.5571251251583,-64.88775643413595,17.33528790085606,11.143138086469216,0.0,0.0,112.94472605063018,-62.86258920879087,92.69740536297397,-24.61094392992144,75.48219295499308,1.725958818752325,62.43280075656107,20.859817885823965,10,1.2861500479111646e-15,511.56436196776707,1.0514522486011218e-15,511.56436196776707,2.220446049250313e-13,0.0,0.06580870071036804,1.2503653134969945,0.06580870071036804
0.2417617883983228,364.5228557703638,-52.512832166116354,346.17363881969675,-64.20124407515502,321.96287185125794,-48.01889364721481,24.210766968438804,-16.182350427940207,64.61857158126713,21.440258099756456,281.5550672384297,-85.6415021749115,346.17363881969675,-64.20124407515502,18.34921695066705,11.68841190903866,0.0,0.0,112.85362704233441,-62.810121189430376,92.67290613532143,-24.602457250638736,76.02853406077384,1.771076265157589,64.61857158126713,21.440258099756456,10,1.0787128769340702e-15,517.8296393626156,1.0277257986071036e-15,517.8296393626156,1.1102230246251565e-13,0.0,0.05758261312157198,1.2421392259081983,0.05758261312157198
0.24319233152494008,363.30050504871645,-53.79994022324291,343.90513367962984,-66.04202794684241,322.9586160892121,-51.9563336959464,20.946517590417727,-14.085694250896012,61.34240632357924,20.13078633870137,282.5627273560506,-86.17281428554381,343.90513367962984,-66.04202794684241,19.395371369086632,12.242087723599495,0.0,0.0,113.50586557459008,-63.17707269632863,93.14737045431046,-24.730432737578987,75.90949132715004,1.7346911483638152,61.34240632357924,20.13078633870137,10,9.686612607973968e-16,481.9206670589671,1.3672104010001606e-15,481.9206670589671,1.6653345369377348e-13,0.0,0.04935652553277614,1.2339131383194024,0.04935652553277614
0.24462287465155738,366.5133070423868,-52.71041133871826,346.0390335444709,-65.51431433863385,328.55430116976044,-53.68535867877287,17.48473237471046,-11.82895565986098,62.9914258571238,20.535743154191557,283.04760768734707,-86.05005749282535,346.0390335444709,-65.51431433863385,20.47427349791591,12.803902999915593,0.0,0.0,113.40200615177838,-63.117103104961416,93.12396809749981,-24.722033299512013,76.52163343806892,1.7890789116480335,62.9914258571238,20.535743154191557,10,9.641105790256636e-16,487.7140104198746,9.997209274864707e-16,487.7140104198746,1.1102230246251565e-13,0.0,0.04113043794398008,1.2256870507306064,0.04113043794398008
0.24605341777817466,367.5167860488587,-53.40772942545519,345.9303170196879,-66.78132545876517,331.8108749390087,-57.171494582811135,14.119442080679164,-9.609830875954032,61.59227939277883,19.75807442542329,284.3380376269091,-86.53939988418848,345.9303170196879,-66.78132545876517,21.58646902917079,13.37359603330998,0.0,0.0,114.05202499889793,-63.48280498896116,93.60500598513158,-24.85085970852338,76.68100664287957,1.794264813296067,61.59227939277883,19.75807442542329,10,9.274021832987854e-16,454.63762848920265,9.320587003716606e-16,454.63762848920265,1.1102230246251565e-13,0.0,0.03290435035518402,1.2174609631418103,0.03290435035518402
0.24748396090479197,371.02165638009467,-52.28369026921012,348.2891297122273,-66.2345953293513,337.6835886899412,-58.97302770135255,10.605541022286104,-7.261567627998744,63.32422300109509,20.153341370759435,284.9649067111322,-86.38793670011069,348.2891297122273,-66.2345953293513,22.732526667867404,13.950905060141174,0.0,0.0,113.93520016623043,-63.415328603687186,93.58691135300245,-24.843100565846242,77.44279519189931,1.8704924694227287,63.32422300109509,20.153341370759435,10,1.1851602874261315e-15,460.05941919180515,1.1180255401455436e-15,460.05941919180515,2.220446049250313e-13,0.0,0.02467826276638796,1.2092348755530142,0.02467826276638796
0.24891450403140927,370.6116884996418,-53.33578052145886,346.69865070864586,-67.8713479047826,339.56138157063106,-62.955271528178855,7.137269138014801,-4.9160763766037405,60.44182073765505,19.005551869905204,286.2568299709908,-86.87689977468779,346.69865070864586,-67.8713479047826,23.9130377909959,14.535567383323741,0.0,0.0,114.58372183389584,-63.780122362871765,94.06906807738703,-24.971656215832695,77.60404005970788,1.8748788040166886,60.44182073765505,19.005551869905204,10,9.276135952288525e-16,429.5367536780991,1.6045675987734298e-15,429.5367536780991,1.1102230246251565e-13,0.0,0.0164521751775919,1.2010087879642182,0.0164521751775919
0.2503450471580266,373.9794573550429,-52.274706181153775,348.8508412527362,-67.40202468906713,345.27747090374083,-64.9260690717918,3.573370348995354,-2.475955617275332,61.882582825097785,19.30418740923301,286.9682584276384,-86.7062120983001,348.8508412527362,-67.40202468906713,25.128616102306697,15.12731850791336,0.0,0.0,114.45675304042453,-63.70638438002848,94.05208106351988,-24.963212726628868,78.45942432369397,1.9633850083572568,61.882582825097785,19.30418740923301,10,1.1333171474378768e-15,434.6355865155597,1.1212895045053894e-15,434.6355865155597,1.1102230246251565e-13,0.0,0.008226087588795838,1.1927827003754221,0.008226087588795838
0.25177559028464386,364.9627545535497,-57.33960467479612,355.63736408462984,-63.72872818280166,355.63736408462984,-63.72872818280166,0.0,0.0,67.79595022512086,23.52594882330689,287.841413859509,-87.25467700610855,355.63736408462984,-63.72872818280166,9.32539046891985,6.389123508005536,0.0,0.0,115.10530044724224,-64.07094043870536,94.52932017649164,-25.090252886078467,78.20679323577507,1.906516318675294,67.79595022512086,23.52594882330689,11,1.485260650809019e-15,687.8233513740744,1.3173283322593597e-15,687.8233513740744,2.220446049250313e-13,0.0,0.0,1.3161740142073626,0.0
0.25320613341126114,368.29647570212273,-55.84401615042416,358.23710994796363,-62.677572933719915,306.86097782466294,-29.99677902027969,51.37613212330069,-32.680793913440226,70.01971601137159,24.193807881684336,288.21739393659203,-86.87138081540424,358.23710994796363,-62.677572933719915,10.059365754159122,6.833556783295753,0.0,0.0,114.65216668773665,-63.78373640749397,94.51059806036673,-25.080742059482624,79.05462918848865,1.99309765157237,70.01971601137159,24.193807881684336,10,1.029192819717644e-15,692.7069026869721,1.2995196306272045e-15,692.7069026869721,1.1102230246251565e-13,0.0,0.12339131383194024,1.3079479266185667,0.12339131383194024
0.2546366765378784,365.08401990945157,-57.4962528457888,354.26039741193074,-64.78602755985102,305.8717619906872,-33.81127866870395,48.38863542124352,-30.974748891147073,65.54507063880408,22.702977154961665,288.71532677312666,-87.48900471481267,354.26039741193074,-64.78602755985102,10.82362249752085,7.289774714062216,0.0,0.0,115.32716530664068,-64.16473668705903,94.98174099606607,-25.206474816058048,78.40642047041993,1.8822067883044156,65.54507063880408,22.702977154961665,10,1.2179445739932616e-15,642.9389124061129,1.3628517722646565e-15,642.9389124061129,1.1102230246251565e-13,0.0,0.1151652262431444,1.2997218390297707,0.1151652262431444
0.25606721966449575,368.45917309538146,-56.29316111834369,356.84056327877556,-64.05069245142369,311.8198574270977,-35.051012518855345,45.02070585167786,-28.99967993256834,67.55771022546459,23.31288060851405,289.28285305331104,-87.36357305993779,356.84056327877556,-64.05069245142369,11.618609816605899,7.757531333079994,0.0,0.0,115.23395753518797,-64.11371446018754,94.95908219358215,-25.195829255311494,79.08981332454093,1.945970655561247,67.55771022546459,23.31288060851405,10,1.0254787832435806e-15,652.0828307897369,1.8765160576359486e-15,652.0828307897369,1.1102230246251565e-13,0.0,0.10693913865434812,1.2914957514409746,0.10693913865434812
0.257497762791113,366.3164588955572,-57.7363796061631,353.87165855585533,-65.97296409732596,311.93297676958093,-38.78961456407171,41.9386817862744,-27.183349533254244,64.0486538831486,21.995378252981197,289.8230046727067,-87.9683423503071,353.87165855585533,-65.97296409732596,12.444800339701862,8.236584491162857,0.0,0.0,115.90571140793558,-64.4929000397634,95.4259726814154,-25.320993327859917,78.4913205833557,1.8455510173162395,64.0486538831486,21.995378252981197,10,1.1637689164195867e-15,602.2864369344402,1.3175319789834847e-15,602.2864369344402,1.249000902703301e-13,0.0,0.09871305106555206,1.2832696638521786,0.09871305106555206
0.2589283059177303,369.529835179751,-56.54545652300392,356.227145286867,-65.27215148804336,317.7148980890587,-40.15452718212623,38.512247197808335,-25.117624305917133,65.99752493316123,22.576200554610395,290.2296203537058,-87.84835204265379,356.227145286867,-65.27215148804336,13.302689892883958,8.726694965039446,0.0,0.0,115.79332621047647,-64.43045288709644,95.39806157765993,-25.30930580450925,79.03823256556942,1.8914066489519001,65.99752493316123,22.576200554610395,10,9.808980274357553e-16,610.7841773148599,1.894531340392833e-15,610.7841773148599,1.1102230246251565e-13,0.0,0.09048696347675622,1.2750435762633827,0.09048696347675622
0.26035884904434764,368.36347198378684,-57.76298142835651,354.1706748007425,-66.99060700246298,318.83700996005547,-43.80329206403201,35.33366484068705,-23.187314938430973,63.238684377444436,21.437098819529226,290.93199042329815,-88.42770582199222,354.1706748007425,-66.99060700246298,14.192797183044302,9.227625574106467,0.0,0.0,116.4615609748777,-64.80760159856868,95.86430742140395,-25.434756475344507,78.60612202701648,1.814652251920947,63.238684377444436,21.437098819529226,10,1.6033155810941006e-15,564.958585706331,1.4405677479935428e-15,564.958585706331,1.1102230246251565e-13,0.0,0.08226087588795994,1.2668174886745864,0.08226087588795994
0.2617893921709649,371.5246695021216,-56.58759871829326,356.4090060256838,-66.32673902433959,324.55839295533826,-45.29636741724394,31.85061307034556,-21.030371607095645,65.14729636755433,21.975266807027587,291.26170965812946,-88.30200583136713,356.4090060256838,-66.32673902433959,15.11566347643776,9.739140306046332,0.0,0.0,116.33024594063215,-64.73386011986234,95.83083578720732,-25.422196850972668,79.10062793028996,1.854051139467913,65.14729636755433,21.975266807027587,10,9.010594156712617e-16,572.2026635923886,1.0465143600218372e-15,572.2026635923886,1.1102230246251565e-13,0.0,0.0740347882991641,1.2585914010857904,0.0740347882991641
