time_s,total_vertical_force_n,total_pitch_moment_nm,raw_bem_vertical_force_n,raw_bem_pitch_moment_nm,resolved_station_bem_vertical_force_n,resolved_station_bem_pitch_moment_nm,transom_extrapolation_vertical_force_n,transom_extrapolation_pitch_moment_nm,pre_chine_bem_vertical_force_n,pre_chine_bem_pitch_moment_nm,post_chine_bem_vertical_force_n,post_chine_bem_pitch_moment_nm,bem_vertical_force_n,bem_pitch_moment_nm,front_vertical_force_n,front_pitch_moment_nm,transom_vertical_force_n,transom_pitch_moment_nm,longitudinal_bin_aft_post_chine_vertical_force_n,longitudinal_bin_aft_post_chine_pitch_moment_nm,longitudinal_bin_middle_post_chine_vertical_force_n,longitudinal_bin_middle_post_chine_pitch_moment_nm,longitudinal_bin_forward_post_chine_vertical_force_n,longitudinal_bin_forward_post_chine_pitch_moment_nm,longitudinal_bin_pre_chine_vertical_force_n,longitudinal_bin_pre_chine_pitch_moment_nm,active_plane_count,potential_bvp_relative_residual,potential_bvp_condition_number,pressure_bvp_relative_residual,pressure_bvp_condition_number,free_surface_pressure_max_abs_pa,contact_constraint_max_abs_m,aftmost_resolved_station_x_m,foremost_resolved_station_x_m,transom_coverage_gap_m
0.0,431.2657366456217,-39.07895507943624,420.29913150821045,-46.35032402812536,420.29913150821045,-46.35032402812536,0.0,0.0,114.02938862979701,39.12992017830811,306.26974287841347,-85.4802442064335,420.29913150821045,-46.35032402812536,10.966605137411221,7.271368948689118,0.0,0.0,113.51448328165804,-63.10177694655171,96.98660763796461,-25.603756659012127,95.76865195879084,3.225289399130304,114.02938862979701,39.12992017830811,11,9.741153074094216e-16,963.6741823512789,1.2756189021352197e-15,963.6741823512789,2.220446049250313e-13,3.0531133177191805e-16,0.0,1.3161740142073626,0.0
0.0007152715633086473,434.3417235076139,-35.77690785597515,422.4404990387411,-43.64085468106373,371.24811707639043,-11.185912113042377,51.19238196235068,-32.45494256802135,117.89722565863605,40.29296527825947,304.54327338010495,-83.9338199593231,422.4404990387411,-43.64085468106373,11.901224468872812,7.8639468250885765,0.0,0.0,111.59793545629392,-62.003014027727204,95.99595268406367,-25.326769446341416,96.94938523974739,3.3959635147455174,117.89722565863605,40.29296527825947,10,1.290120199230614e-15,971.249408185552,2.1985661167809963e-15,971.249408185552,4.440892098500626e-13,0.0,0.12750435762633838,1.3120609704129647,0.12750435762633838
0.0014305431266172946,440.28781701528413,-33.82549471523694,427.41421704732664,-42.302624009215094,377.9058402157094,-10.815921309714327,49.50837683161723,-31.486702699500768,121.65897974587135,41.33119317098826,305.75523730145534,-83.63381718020338,427.41421704732664,-42.302624009215094,12.873599967957473,8.477129293978152,0.0,0.0,111.4186914537737,-61.9016637432437,95.92276142609836,-25.303621813743767,98.41378442158329,3.5714683767840967,121.65897974587135,41.33119317098826,10,1.2248631841291612e-15,980.9852224647267,1.672912217750278e-15,980.9852224647267,1.1102230246251565e-13,0.0,0.12339131383194024,1.3079479266185665,0.12339131383194024
0.002145814689925942,439.16845649466245,-33.59723378918891,425.28483076335255,-42.70782285360974,377.43683771795736,-12.180966248158057,47.847993045395185,-30.526856605451684,119.90344915479896,40.900915460954096,305.38138160855357,-83.60873831456385,425.28483076335255,-42.70782285360974,13.883625731309898,9.110589064420827,0.0,0.0,111.29128393575121,-61.82904832336264,95.87830465598365,-25.28893298696852,98.2117930168187,3.5092429957673517,119.90344915479896,40.900915460954096,10,1.09378403940581e-15,992.0901005209998,1.4036510692712002e-15,992.0901005209998,4.440892098500626e-13,0.0,0.11927827003754232,1.3038348828241686,0.11927827003754232
0.002861086253234589,450.4407289129771,-39.87136414732216,435.50954085823366,-49.63535884976298,386.62560034860536,-18.34841310786635,48.8839405096283,-31.28694574189663,114.35141667161976,38.87412562980879,321.1581241866139,-88.50948447957171,435.50954085823366,-49.63535884976298,14.931188054743439,9.763994702440819,0.0,0.0,117.4935004960387,-65.28567301099234,101.42592615518932,-26.732443046326644,102.23869753538594,3.508631577747238,114.35141667161976,38.87412562980879,10,1.1837392161752857e-15,890.8672311252358,1.7597837052077222e-15,890.8672311252358,2.220446049250313e-13,0.0,0.1151652262431444,1.2997218390297705,0.1151652262431444
0.0035763578165432363,454.5787560185302,-37.76468919961869,438.5625905653961,-48.201699928926644,391.6726552907908,-18.096713274966532,46.88993527460531,-30.10498665396011,117.30945402322033,39.62691995950078,321.2531365421757,-87.8286198884274,438.5625905653961,-48.201699928926644,16.016165453134157,10.437010729307955,0.0,0.0,116.78396454821072,-64.88772408837133,101.004854196915,-26.61417509044623,103.46431779705,3.6732792903901412,117.30945402322033,39.62691995950078,10,1.9237791562725423e-15,896.00720676589,1.3673026914833646e-15,896.00720676589,4.440892098500626e-13,0.0,0.11105218244874626,1.2956087952353725,0.11105218244874626
0.004291629379851884,459.04040348933825,-36.172469875088765,441.9019748070065,-47.301767595974525,396.8242670708862,-18.269518712815398,45.07770773612032,-29.032248883159127,119.80296412290214,40.13902910963655,322.09901068410437,-87.44079670561104,441.9019748070065,-47.301767595974525,17.138428682331707,11.129297720885756,0.0,0.0,116.48109666116319,-64.71725691522903,100.83710070424102,-26.566519685949366,104.78081331870021,3.8429798955672965,119.80296412290214,40.13902910963655,10,1.4725065926697076e-15,899.7507670049714,3.225017343079573e-15,899.7507670049714,2.220446049250313e-13,0.0,0.10693913865434834,1.2914957514409746,0.10693913865434834
0.005006900943160531,463.22212226257915,-34.711671604924526,444.9242814994985,-46.55218401293513,401.66892354765406,-18.60645266611317,43.25535795184442,-27.945731346821958,121.95014857484546,40.45675626270841,322.97413292465296,-87.00894027564351,444.9242814994985,-46.55218401293513,18.297840763080682,11.840512408010605,0.0,0.0,116.14299702622925,-64.52675602718497,100.63980746883115,-26.511561405730518,106.19132842959262,4.029377157271938,121.95014857484546,40.45675626270841,10,1.2057252612608745e-15,900.4410757137382,9.512722253488974e-16,900.4410757137382,2.220446049250313e-13,0.0,0.1028260948599502,1.2873827076465765,0.1028260948599502
0.005722172506469178,463.5647509255515,-43.94082977238496,444.07049391860494,-56.51113755025477,399.8238313182906,-27.83484910302002,44.24666260031432,-28.676288447234754,108.19362246216598,36.83811448123494,335.8768714564389,-93.34925203148961,444.07049391860494,-56.51113755025477,19.49425700694657,12.570307777869814,0.0,0.0,123.36779335342024,-68.55869879154201,106.81212590267968,-28.12694176713815,105.69695220033898,3.3363885271905644,108.19362246216598,36.83811448123494,10,1.3381261834110038e-15,823.6213724028513,1.2036011681267587e-15,823.6213724028513,2.220446049250313e-13,0.0,0.09871305106555228,1.2832696638521786,0.09871305106555228
0.0064374440697778255,466.08718116300145,-42.11097119331056,445.3596561187587,-55.42930436965838,403.2037491229113,-28.023003819367005,42.15590699584743,-27.406300550291377,110.07476106986223,37.217700888753555,335.2848950488965,-92.64700525841192,445.3596561187587,-55.42930436965838,20.727525044242704,13.318333176347823,0.0,0.0,122.54692642866056,-68.09899350003928,106.29598105975212,-27.983429546902954,106.44198756048378,3.435417788530316,110.07476106986223,37.217700888753555,10,9.112679766111974e-16,825.1527340694115,1.9150435669695035e-15,825.1527340694115,2.220446049250313e-13,0.0,0.09460000727115414,1.2791566200577806,0.09460000727115414
0.007152715633086473,469.0344103149512,-40.78136621262416,447.03692546100353,-54.86560062392965,406.7894510423349,-28.618701314514198,40.24747441866862,-26.246899309415454,111.59165537498184,37.437783658851075,335.44527008602165,-92.30338428278068,447.03692546100353,-54.86560062392965,21.997484853947615,14.084234411305497,0.0,0.0,122.19622699210828,-67.90219421225588,106.07894356643251,-27.923025944295787,107.17009952748091,3.521835873770968,111.59165537498184,37.437783658851075,10,1.1912003262647121e-15,825.3441646068221,1.4887464843385778e-15,825.3441646068221,4.440892098500626e-13,0.0,0.09048696347675622,1.2750435762633825,0.09048696347675622
0.00786798719639512,471.52942142455447,-39.544788539257965,448.2254526289457,-54.41244239601974,409.89510356692705,-29.33829484679319,38.33034906201863,-25.074147549226552,112.80029531650811,37.529693658639616,335.4251573124376,-91.94213605465933,448.2254526289457,-54.41244239601974,23.303968795608814,14.867653856761775,0.0,0.0,121.80778862855419,-67.68371549756495,105.83390229116364,-27.85581507681632,107.78346639271973,3.5973945197219734,112.80029531650811,37.529693658639616,10,1.1176372792441177e-15,824.3191289031215,1.5234477678945458e-15,824.3191289031215,4.440892098500626e-13,0.0,0.0863739196823583,1.2709305324689846,0.0863739196823583
0.008583258759703769,475.5457033688373,-45.953401743966964,450.8989017256146,-61.62163230190981,412.445183921623,-36.388462960793845,38.453717803991594,-25.233169341115968,104.95049398498777,35.50009304178235,345.94840774062686,-97.12172534369216,450.8989017256146,-61.62163230190981,24.64680164322264,15.668230557942845,0.0,0.0,127.87830560138663,-71.07561890274545,110.76006399805215,-29.157540226803093,107.31003814118809,3.111433785856363,104.95049398498777,35.50009304178235,10,1.9733858344296708e-15,758.4041665752561,1.062294430520552e-15,758.4041665752561,4.440892098500626e-13,0.0,0.08226087588796038,1.2668174886745864,0.08226087588796038
0.009298530323012415,477.2173630473766,-44.11164992903816,451.19156242629265,-60.59725026620504,414.90123708294226,-36.71026151054389,36.29032534335039,-23.88698875566115,106.52606591573235,35.7689869155402,344.6654965105603,-96.36623718174519,451.19156242629265,-60.59725026620504,26.025800621083903,16.48560033716688,0.0,0.0,126.92870784330205,-70.544128267968,110.12474201273949,-28.98347894830956,107.61204665451872,3.161370034532382,106.52606591573235,35.7689869155402,10,1.0950586072981007e-15,758.7681825908792,1.6536312244241142e-15,758.7681825908792,2.220446049250313e-13,0.0,0.07814783209356224,1.2627044448801885,0.07814783209356224
0.010013801886321063,479.5571795841286,-42.76120855920616,452.1164041425353,-60.0806044597349,417.81495307369283,-37.43323780542218,34.30145106884248,-22.64736665431272,107.88142995624654,35.93709712352356,344.23497418628875,-96.0177015832584,452.1164041425353,-60.0806044597349,27.4407754415933,17.31939590052874,0.0,0.0,126.50933326548915,-70.30904251029452,109.83334256581058,-28.904632077338604,107.89229835498902,3.195973004374707,107.88142995624654,35.93709712352356,10,1.5396684256843454e-15,758.2472455421172,1.4190951521764422e-15,758.2472455421172,4.440892098500626e-13,0.0,0.07403478829916432,1.2585914010857904,0.07403478829916432
0.010729073449629709,481.576160709172,-41.467272354586626,452.68463236415636,-59.63651929993907,420.37575006252837,-38.23923816707941,32.30888230162799,-21.39728113285966,109.05045213005985,36.01830458356177,343.6341802340965,-95.65482388350082,452.68463236415636,-59.63651929993907,28.891528345015605,18.16924694535244,0.0,0.0,126.05707188424425,-70.05481451312797,109.52056910334558,-28.820748595209608,108.05653924650663,3.2207392248367483,109.05045213005985,36.01830458356177,10,1.0459241881434433e-15,757.0717884606572,1.2626154051933076e-15,757.0717884606572,4.440892098500626e-13,0.0,0.06992174450476618,1.2544783572913925,0.06992174450476618
0.011444345012938357,487.7054585919751,-46.061605120774146,457.32760445079845,-65.09638538915013,425.567797898154,-43.99800459867504,31.75980655264442,-21.09838079047509,104.13010338004808,34.68100761449185,353.1975010707504,-99.777393003642,457.32760445079845,-65.09638538915013,30.37785414117664,19.034780268375982,0.0,0.0,131.16927735014843,-72.91621542653824,113.45326454674203,-29.86899257609832,108.57495917385994,3.0078149989945473,104.13010338004808,34.68100761449185,10,9.422643611961364e-16,698.0498943480626,1.3495264146675372e-15,698.0498943480626,4.440892098500626e-13,0.0,0.06580870071036804,1.2503653134969945,0.06580870071036804
0.012159616576247005,489.16987913579226,-44.035816494861,457.2703388827033,-63.951436369495724,427.72363974987354,-44.26328061815286,29.546699132829758,-19.688155751342862,105.72940087145699,34.93778509339754,351.54093801124634,-98.88922146289329,457.2703388827033,-63.951436369495724,31.89954025308893,19.91561987463472,0.0,0.0,130.05922745011839,-72.29498208084988,112.67408958323054,-29.65822226948852,108.80762097789744,3.0639828874450643,105.72940087145699,34.93778509339754,10,1.2354872307916109e-15,698.1823047498299,2.0078225294608115e-15,698.1823047498299,4.440892098500626e-13,0.0,0.06169565691597012,1.2462522697025964,0.06169565691597012
0.012874888139555651,491.5474374057645,-42.51159088083811,458.09107064327094,-63.32297796784613,430.5978297563609,-44.94726191824657,27.49324088691003,-18.37571604959956,107.18170032457151,35.12128243144544,350.9093703186994,-98.44426039929161,458.09107064327094,-63.32297796784613,33.45636676249358,20.811387087008015,0.0,0.0,129.5361256973475,-72.0018464016355,112.28087370409433,-29.55397647768426,109.0923709172576,3.1115624800281694,107.18170032457151,35.12128243144544,10,1.1608585570210342e-15,697.6859117252162,1.0381532081062305e-15,697.6859117252162,2.220446049250313e-13,0.0,0.0575826131215722,1.2421392259081985,0.0575826131215722
0.013590159702864299,493.7427895839834,-41.03067162981535,458.69468312667584,-62.752372286210175,433.25105016065163,-45.69482129981253,25.44363296602421,-17.057550986397644,108.49112800503204,35.232728747868265,350.20355512164383,-97.98510103407841,458.69468312667584,-62.752372286210175,35.04810645730753,21.721700656394823,0.0,0.0,128.9912962355897,-71.69569516721914,111.87723502073676,-29.44755423233285,109.33502386531742,3.1581483654735507,108.49112800503204,35.232728747868265,10,1.5924910210073959e-15,696.7325644925551,1.6389494777654746e-15,696.7325644925551,2.220446049250313e-13,0.0,0.05346956932717428,1.2380261821138006,0.05346956932717428
0.014305431266172945,499.4996708100896,-44.67646261163733,462.8251459291266,-67.32263948412051,438.44573503769993,-50.928794574086055,24.379410891426687,-16.39384491003446,104.17412878325251,34.02898917315868,358.6510171458741,-101.35162865727918,462.8251459291266,-67.32263948412051,36.67452488096296,22.64617687248319,0.0,0.0,133.34816058214935,-74.1389245491572,115.06062046454626,-30.302776509222625,110.24223609917854,3.0900724011006275,104.17412878325251,34.02898917315868,10,1.0813726952499685e-15,642.3173908176258,2.3143088626054235e-15,642.3173908176258,4.440892098500626e-13,0.0,0.04935652553277614,1.2339131383194024,0.04935652553277614
0.015020702829481593,500.8537671686728,-42.452058022975336,462.51838678504726,-66.03648769805324,440.3690145588434,-51.09712796268033,22.149372226203866,-14.939359735372904,105.75521173862184,34.27124858142962,356.76317504642543,-100.30773627948284,462.51838678504726,-66.03648769805324,38.335380383625505,23.584429675077903,0.0,0.0,132.0675524881603,-73.42215658059615,114.14144038916379,-30.05540448270463,110.55418216910137,3.16982478381793,105.75521173862184,34.27124858142962,10,1.0101970861486174e-15,642.4734138007368,1.555748047796994e-15,642.4734138007368,2.220446049250313e-13,0.0,0.04524348173837822,1.2298000945250045,0.04524348173837822
0.01573597439279024,503.30743983081805,-40.74934139545277,463.2770156555411,-65.28541216140366,443.2205992120246,-51.7168361886246,20.056416443516525,-13.568575972779058,107.22875395698782,34.45583288484852,356.04826169855323,-99.74124504625212,463.2770156555411,-65.28541216140366,40.030424175276956,24.53607076595089,0.0,0.0,131.4247431886191,-73.06193335164804,113.64960206919623,-29.9250847158133,110.97391644073791,3.2457730212092315,107.22875395698782,34.45583288484852,10,9.49940178886323e-16,642.1413302568005,1.4127483271152728e-15,642.1413302568005,4.440892098500626e-13,0.0,0.0411304379439803,1.2256870507306064,0.0411304379439803
0.016451245956098887,505.6728936083164,-39.09017549806846,463.9134932276661,-64.59088521924838,445.938198909838,-52.39356437403154,17.975294317828116,-12.197320845216836,108.57828681668475,34.57703487102923,355.3352064109814,-99.16792009027768,463.9134932276661,-64.59088521924838,41.759400380650284,25.500709721179916,0.0,0.0,130.7751003539148,-72.69695717175793,113.16424057265681,-29.79651575538073,111.39586548440977,3.325552836860993,108.57828681668475,34.57703487102923,10,1.0155868641244573e-15,641.4409926180722,1.454688522408987e-15,641.4409926180722,4.440892098500626e-13,0.0,0.03701739414958216,1.2215740069362084,0.03701739414958216
0.017166517519407537,509.943259933597,-42.28237660712374,466.4212138375975,-68.76033071106207,449.904092915589,-57.518700323012354,16.51712092200853,-11.241630388049714,104.01642060495779,33.313831279129104,362.4047932326397,-102.07416199019107,466.4212138375975,-68.76033071106207,43.522046095999485,26.477954103938334,0.0,0.0,134.58398204689297,-74.83683161224765,115.83468669267403,-30.517587253501638,111.98612449307271,3.2802568755581802,104.01642060495779,33.313831279129104,10,1.00864223585796e-15,590.9969089605942,1.1785098344141317e-15,590.9969089605942,2.220446049250313e-13,0.0,0.03290435035518402,1.2174609631418103,0.03290435035518402
0.017881789082716183,511.10158605739537,-39.89295229836478,465.7834946097059,-67.36036187606538,451.4771771373922,-57.59418879732999,14.306317472313708,-9.766173078735392,105.52321932912963,33.53195743387242,360.2602752805763,-100.89231930993782,465.7834946097059,-67.36036187606538,45.3180914476895,27.4674095777006,0.0,0.0,133.1403225086517,-74.02863966522949,114.79849155265319,-30.238473570570363,112.32146121927147,3.3747939258619795,105.52321932912963,33.53195743387242,10,1.0887659757438462e-15,591.2168541137166,1.2772340232734832e-15,591.2168541137166,2.220446049250313e-13,0.0,0.0287913065607861,1.2133479193474124,0.0287913065607861
0.01859706064602483,513.507294070848,-38.04645002564504,466.3600344182556,-66.51513004547365,454.1573360397461,-58.160034303529244,12.202698378509524,-8.35509574194441,106.95274860619737,33.704023357412254,359.40728581205826,-100.2191534028859,466.3600344182556,-66.51513004547365,47.14725965259248,28.468680019828614,0.0,0.0,132.37997099672322,-73.60244913318346,114.22194739135772,-30.085115199087205,112.80536742397736,3.4684109293847314,106.95274860619737,33.704023357412254,10,1.019223252261583e-15,591.0372255198731,9.249075284292937e-16,591.0372255198731,4.440892098500626e-13,0.0,0.02467826276638818,1.2092348755530145,0.02467826276638818
0.019312332209333476,515.9036974155827,-36.24635291397188,466.8944303353123,-65.72772054947302,456.7765719484339,-58.77939082552376,10.117858386878368,-6.948329723949257,108.27865702483838,33.82190044267041,358.61577331047386,-99.54962099214345,466.8944303353123,-65.72772054947302,49.00926708027043,29.481367635501137,0.0,0.0,131.63053022980574,-73.18125971234727,113.66461583094518,-29.936829767208735,113.32062724972296,3.5684684874125736,108.27865702483838,33.82190044267041,10,1.2327718432509717e-15,590.5385899141266,2.2135711569227388e-15,590.5385899141266,3.3306690738754696e-13,0.0,0.02056521897199004,1.2051218317586163,0.02056521897199004
0.020027603772642125,518.6816514371154,-39.22174793044967,467.7778281201864,-69.72682100240058,459.43250193842397,-63.97865641053028,8.34532618176246,-5.748164591870307,103.30404515924653,32.45347118834822,364.4737829609399,-102.18029219074882,467.7778281201864,-69.72682100240058,50.90382331692898,30.50507307195091,0.0,0.0,135.05893138646252,-75.11010843665197,115.99182464792415,-30.56811455941432,113.42302692655316,3.497930805317509,103.30404515924653,32.45347118834822,10,1.0424630931878368e-15,543.9986936904065,1.9993375077438676e-15,543.9986936904065,2.220446049250313e-13,0.0,0.01645217517759212,1.2010087879642184,0.01645217517759212
0.02074287533595077,519.6168342821243,-36.698973373399596,466.7862030509988,-68.23836890637352,460.597799539844,-63.96318113421387,6.188403511154775,-4.275187772159654,104.72888701003899,32.64710034609982,362.0573160409598,-100.88546925247331,466.7862030509988,-68.23836890637352,52.830631231125544,31.53939553297393,0.0,0.0,133.47490541951257,-74.22266371219862,114.85739933327675,-30.262119951677363,113.72501128817046,3.599314411402702,104.72888701003899,32.64710034609982,10,9.962694548090657e-16,544.3022353271235,1.8432248559536077e-15,544.3022353271235,2.220446049250313e-13,0.0,0.012339131383194202,1.1968957441698205,0.012339131383194202
0.021458146899259418,521.9278368117323,-34.73856238571009,467.1384497705207,-67.32249527938313,463.0366182588711,-64.4803750118333,4.101831511649607,-2.8421202675498307,106.09750149026968,32.802729465722706,361.04094828025103,-100.12522474510587,467.1384497705207,-67.32249527938313,54.78938704121162,32.583932893673044,0.0,0.0,132.61462809713532,-73.73983163107947,114.20859053464659,-30.088978467944784,114.21772964846906,3.7035853539184416,106.09750149026968,32.802729465722706,10,1.47671807292087e-15,544.2713483900733,1.5227059312554206e-15,544.2713483900733,2.220446049250313e-13,0.0,0.00822608758879606,1.1927827003754223,0.00822608758879606
0.022173418462568067,520.1665231016241,-33.773658023179415,463.3867427171318,-67.41193983858017,461.34771309601445,-65.99492768926078,2.039029621117379,-1.4170121493193903,103.97312385425514,32.075850908663625,359.41361886287666,-99.48779074724379,463.3867427171318,-67.41193983858017,56.779780384492305,33.63828181540075,0.0,0.0,131.78242875612267,-73.27163804315258,113.59157562540321,-29.924460707472726,114.03961448135075,3.7083080033815463,103.97312385425514,32.075850908663625,10,9.795800157550916e-16,543.9529290243788,1.0901350249582619e-15,543.9529290243788,2.220446049250313e-13,0.0,0.004113043794398141,1.1886696565810244,0.004113043794398141
0.022888690025876714,499.13807816600865,-48.57287793260755,479.8665387168207,-61.635009528869205,479.8665387168207,-61.635009528869205,0.0,0.0,115.85460034941326,40.3726733363622,364.0119383674074,-102.0076828652314,479.8665387168207,-61.635009528869205,19.271539449187948,13.06213159626166,0.0,0.0,134.95246080311327,-75.05665164953436,115.68625697723716,-30.49545548428219,113.37322058705696,3.5444242685851606,115.85460034941326,40.3726733363622,11,1.5000375817954035e-15,717.8398789419224,1.5198394409587687e-15,717.8398789419224,4.440892098500626e-13,3.469446951953614e-18,0.0,1.3161740142073626,0.0
0.02360396158918536,499.2453376216265,-45.6563578929359,478.77331215993445,-59.48540348353589,417.76260345525134,-20.804041737841033,61.01070870468311,-38.68136174569486,117.92725009071384,40.820667738852976,360.84606206922064,-100.30607122238894,478.77331215993445,-59.48540348353589,20.472025461692066,13.82904559059999,0.0,0.0,132.76418112489543,-73.78380264895716,114.47464273998794,-30.168708827307825,113.6072382043372,3.6464402538760794,117.92725009071384,40.820667738852976,10,1.2346210913177447e-15,721.8639452322368,1.7815512009721962e-15,721.8639452322368,3.3306690738754696e-13,0.0,0.12750435762633816,1.3120609704129647,0.12750435762633816
0.02431923315249401,501.1281643016177,-43.75254957601018,479.4215357574314,-58.3659860681467,420.7083536844737,-21.02341631142076,58.71318207295769,-37.342569756725936,119.73037611000495,41.15481797748302,359.69115964742645,-99.52080404562975,479.4215357574314,-58.3659860681467,21.70662854418631,14.613436492136515,0.0,0.0,131.87785492985907,-73.29029325485881,113.77002406686434,-29.98083206778604,114.04328065070305,3.7503212770151038,119.73037611000495,41.15481797748302,10,1.4656916273328233e-15,726.7082012193036,2.166383605497613e-15,726.7082012193036,2.220446049250313e-13,0.0,0.12339131383194024,1.3079479266185665,0.12339131383194024
0.025034504715802656,502.93083874718343,-41.99043038786103,479.95574130682223,-57.40533094185565,423.5043558870226,-21.387938032748536,56.451385419799635,-36.017392909107116,121.25529836829449,41.35502881008465,358.7004429385277,-98.76035975194029,479.95574130682223,-57.40533094185565,22.97509744036117,15.41490055399462,0.0,0.0,131.03504068540283,-72.82015106569058,113.10834286104121,-29.80477127623442,114.55705939208374,3.8645625899847005,121.25529836829449,41.35502881008465,10,1.1732284262315085e-15,732.3979811909037,1.2580137090874248e-15,732.3979811909037,4.440892098500626e-13,0.0,0.11927827003754232,1.3038348828241686,0.11927827003754232
0.025749776279111302,495.14458807256415,-46.307667142619195,470.8674139117982,-62.54069886102229,414.9721516213232,-26.764516881119278,55.895262290475046,-35.776181979903015,110.61714116606869,38.95897206922497,360.25027274572955,-101.4996709302473,470.8674139117982,-62.54069886102229,24.277174160765895,16.233031718403094,0.0,0.0,133.99232783876784,-74.48250200057508,115.04141725618376,-30.33352978084998,111.21652765077792,3.3163608511777767,110.61714116606869,38.95897206922497,10,1.4344285110110193e-15,666.4621115068771,1.10892891815603e-15,666.4621115068771,4.440892098500626e-13,0.0,0.1151652262431444,1.2997218390297705,0.1151652262431444
0.02646504784241995,494.4468955554241,-43.89496764852456,468.8343015066279,-60.96238938438728,415.58911853361343,-26.775503899816044,53.245182973014494,-34.186885484571235,111.85936453782458,39.189713715153516,356.9749369688034,-100.1521030995408,468.8343015066279,-60.96238938438728,25.61259404879618,17.067421735862716,0.0,0.0,132.2574847570221,-73.51373486120883,113.77376064525767,-29.99200793503877,110.94369156652354,3.353639696706864,111.85936453782458,39.189713715153516,10,1.1506009956765356e-15,671.1839036273918,1.0657480981803154e-15,671.1839036273918,2.220446049250313e-13,0.0,0.11105218244874626,1.2956087952353725,0.11105218244874626
0.027180319405728598,494.74029980815624,-42.251836306420294,467.7592139598034,-60.16949659105063,416.80332251458657,-27.34995507093595,50.95589144521682,-32.81954152011468,112.64644313421941,39.22793241493618,355.1127708255839,-99.39742900598677,467.7592139598034,-60.16949659105063,26.98108584835282,17.917660284630337,0.0,0.0,131.30378353212734,-72.98158078324619,113.03004492889684,-29.794086214827942,110.7789423645597,3.378237992087378,112.64644313421941,39.22793241493618,10,1.3535404886642674e-15,676.6601750072167,1.1133898182482448e-15,676.6601750072167,2.220446049250313e-13,0.0,0.10693913865434834,1.2914957514409746,0.10693913865434834
0.027895590969037244,494.6216691289936,-40.860420686719934,466.2392973558425,-59.6437557772025,417.5313359164054,-28.17399383844935,48.7079614394371,-31.46976193875315,112.94456889977965,39.05523989745282,353.29472845606284,-98.6989956746553,466.2392973558425,-59.6437557772025,28.382371773151103,18.783335090482563,0.0,0.0,130.40845355580856,-72.48109933629004,112.33926843344886,-29.610776807355577,110.54700646680539,3.3928804689903274,112.94456889977965,39.05523989745282,10,9.071110194346832e-16,681.9555906375288,1.5117544731815553e-15,681.9555906375288,4.440892098500626e-13,0.0,0.1028260948599502,1.2873827076465765,0.1028260948599502
0.02861086253234589,494.9985739282141,-43.32606734887183,465.1824063505546,-62.99009939559227,417.2560179377021,-31.92785857358689,47.926388412852475,-31.06224082200538,108.78804828420519,38.09042933418253,356.3943580663494,-101.08052872977484,465.1824063505546,-62.99009939559227,29.816167577659552,19.664032046720433,0.0,0.0,133.2445451408165,-74.07677157842114,114.15719049011523,-30.107965794087164,108.99262243541762,3.1042086427334965,108.78804828420519,38.09042933418253,10,1.0928139497459103e-15,619.1187323560076,1.446128416248423e-15,619.1187323560076,1.1102230246251565e-13,0.0,0.09871305106555206,1.2832696638521786,0.09871305106555206
0.02932613409565454,494.0296755068718,-40.89108698911438,462.7474928772231,-61.45042232349249,417.4080067075047,-31.973506881883452,45.33948616971844,-29.476915441609037,109.93358875652072,38.254779438833,352.8139041207023,-99.70520176232537,462.7474928772231,-61.45042232349249,31.28218262964866,20.559335334378112,0.0,0.0,131.43950047215756,-73.06767490170827,112.85360922036682,-29.757013380018506,108.52079442817796,3.1194865194013914,109.93358875652072,38.254779438833,10,1.0000962574853013e-15,621.8736674169489,1.3478237305536027e-15,621.8736674169489,2.220446049250313e-13,0.0,0.09460000727115414,1.2791566200577806,0.09460000727115414
0.030041405658963186,494.1708855858427,-39.227126121014145,461.3907656015168,-60.69595366361028,418.311966348357,-32.60187527309364,43.07879925315984,-28.094078390516643,110.69489756712713,38.24293796323674,350.6958680343898,-98.93889162684707,461.3907656015168,-60.69595366361028,32.780119984325914,21.468827542596138,0.0,0.0,130.4390414112377,-72.5084889359857,112.08671012401095,-29.553180129033628,108.17011649914112,3.122777438172278,110.69489756712713,38.24293796323674,10,1.1846191936388787e-15,624.5580239688713,1.0649686329660494e-15,624.5580239688713,2.220446049250313e-13,0.0,0.09048696347675622,1.2750435762633825,0.09048696347675622
0.030756677222271833,494.07930857497087,-37.7757708204188,459.76963211493444,-60.16786060954081,418.9069573939676,-33.43653309280421,40.86267472096682,-26.7313275167366,111.10581137673114,38.06838990575933,348.66382073820324,-98.23625051530007,459.76963211493444,-60.16786060954081,34.30967646003641,22.392089789122007,0.0,0.0,129.51041216546915,-71.98853267209563,111.38132261434372,-29.366326511635776,107.77208595839042,3.1186086684312926,111.10581137673114,38.06838990575933,10,1.3863775854435354e-15,626.6131745233995,1.7254317931512394e-15,626.6131745233995,2.220446049250313e-13,0.0,0.0863739196823583,1.2709305324689846,0.0863739196823583
0.03147194878558048,497.73091818359296,-39.36762634537341,461.86037546808507,-62.69632818627417,421.9839439227668,-36.52903455797866,39.87643154531827,-26.16729362829551,109.21596095591526,37.68128867970377,352.64441451216976,-100.37761686597798,461.86037546808507,-62.69632818627417,35.87054271550788,23.32870184090076,0.0,0.0,132.25017014113982,-73.53147479304954,113.1085528148136,-29.838016674589085,107.28569155621635,2.9918746016606548,109.21596095591526,37.68128867970377,10,9.075712923820192e-16,573.9950366001892,1.5286046792133502e-15,573.9950366001892,2.220446049250313e-13,0.0,0.08226087588796016,1.2668174886745864,0.08226087588796016
0.03218722034888913,497.0257218616224,-36.81616568742291,459.5633185330087,-61.0944079221382,422.1893165375357,-36.4937157045465,37.37400199547301,-24.6006922175917,110.52020096571749,37.864596983983134,349.04311756729123,-98.95900490612141,459.5633185330087,-61.0944079221382,37.46240332861368,24.278242234715297,0.0,0.0,130.39857127010927,-72.49538929125731,111.78540753357092,-29.482092427518687,106.85913876361101,3.018476812654626,110.52020096571749,37.864596983983134,10,1.5684347281466126e-15,575.7672425194643,1.3912376227291277e-15,575.7672425194643,4.440892098500626e-13,0.0,0.07814783209356224,1.2627044448801885,0.07814783209356224
0.032902491912197775,497.56205071637305,-35.02211198342604,458.477113839738,-60.262400381267355,423.31954399181683,-37.04947263630032,35.157569847921195,-23.212927744967033,111.49748768122889,37.89381588618467,346.9796261585092,-98.15621626745212,458.477113839738,-60.262400381267355,39.084936876635005,25.24028839784131,0.0,0.0,129.36958140976137,-71.91951562876872,111.00753009637137,-29.27566128616664,106.6025146523764,3.0389606474832505,111.49748768122889,37.89381588618467,10,8.424342955343209e-16,577.2701942214785,1.2200615883423678e-15,577.2701942214785,4.440892098500626e-13,0.0,0.07403478829916432,1.2585914010857904,0.07403478829916432
0.03361776347550642,497.98976451232875,-33.4212076635109,457.2519484943345,-59.635624432187,424.26536522666163,-37.78928146199081,32.98658326767287,-21.84634297019619,112.1775200334877,37.78301141330198,345.0744284608468,-97.4186358454889,457.2519484943345,-59.635624432187,40.73781601799423,26.2144167686761,0.0,0.0,128.4242401813869,-71.3895359309688,110.29806650606344,-29.088135576181813,106.35212177339649,3.059035661661696,112.1775200334877,37.78301141330198,10,1.2400039742751886e-15,578.2100400022107,1.1299200619976717e-15,578.2100400022107,1.6653345369377348e-13,0.0,0.06992174450476618,1.2544783572913925,0.06992174450476618
0.034333035038815074,502.0488946138413,-34.923385800830744,459.62818703840264,-62.12358871813626,427.82141812402057,-40.993817629896796,31.806768914382076,-21.129771088239465,110.11049453372523,37.26745131341201,349.51769250467737,-99.39104003154827,459.62818703840264,-62.12358871813626,42.42070757543866,27.200202917305518,0.0,0.0,131.07891557580362,-72.88598601142401,111.95082629633575,-29.53888713001144,106.48795063253806,3.0338331098871265,110.11049453372523,37.26745131341201,10,1.063898174348646e-15,532.2323103035022,2.8944423634172292e-15,532.2323103035022,2.220446049250313e-13,0.0,0.06580870071036804,1.2503653134969945,0.06580870071036804
0.03504830660212372,501.6697998499232,-32.259159083672586,457.53652722927444,-60.45638074964296,428.13163728364106,-40.862593394170915,29.404889945633386,-19.593787355472045,111.50277612231955,37.47442057824118,346.0337511069549,-97.93080132788421,457.53652722927444,-60.45638074964296,44.133272620648754,28.19722166597037,0.0,0.0,129.2013339789703,-71.83457188789448,110.6217469001486,-29.181795843872564,106.21067022783603,3.085566403882879,111.50277612231955,37.47442057824118,10,9.047586053885079e-16,533.6679423073755,7.630959555458774e-16,533.6679423073755,2.220446049250313e-13,0.0,0.06169565691597012,1.2462522697025964,0.06169565691597012
0.035763578165432366,502.62633345117604,-30.33990706024808,456.7511668909309,-59.544954269642176,429.50722667122596,-41.33577988632169,27.24394021970494,-18.209174383320487,112.62048074079416,37.54806685114866,344.13068615013674,-97.09302112079084,456.7511668909309,-59.544954269642176,45.875166560245106,29.205047209394095,0.0,0.0,128.15910062170093,-71.25072536169628,109.8431783987578,-28.975612041397582,106.128407129678,3.1333162823030563,112.62048074079416,37.54806685114866,10,9.924781810258446e-16,534.8677790033048,9.748981632374503e-16,534.8677790033048,4.440892098500626e-13,0.0,0.0575826131215722,1.2421392259081985,0.0575826131215722
0.03647884972874101,503.538676615548,-28.609443803426633,455.8926373923772,-58.83269703836186,430.7654029136971,-41.987205577557006,25.127234478680123,-16.84549146080485,113.46781751681533,37.49283972537252,342.42481987556187,-96.32553676373436,455.8926373923772,-58.83269703836186,47.646039223170796,30.223253234935225,0.0,0.0,127.2106612857404,-70.71851251595214,109.1390747970285,-28.789953672859966,106.07508379279295,3.182929425077745,113.46781751681533,37.49283972537252,10,1.1159731562481879e-15,535.6382684582479,1.1986973768108004e-15,535.6382684582479,2.220446049250313e-13,0.0,0.05346956932717406,1.2380261821138006,0.05346956932717406
0.03719412129204966,506.7395182438199,-30.321678304912645,457.293983294398,-61.57309134743883,433.53388173183873,-45.59565985397751,23.76010156255927,-15.977431493461324,110.41639343263624,36.645772821832566,346.8775898617618,-98.21886416927148,457.293983294398,-61.57309134743883,49.445534949421884,31.25141304252619,0.0,0.0,129.78479796979573,-72.17080738095969,110.74174089782709,-29.225325922191203,106.35105099413894,3.1772691338794488,110.41639343263624,36.645772821832566,10,1.4462640948958104e-15,493.59677066377634,1.2657468771161664e-15,493.59677066377634,2.220446049250313e-13,0.0,0.04935652553277614,1.2339131383194024,0.04935652553277614
0.037909392855358305,506.62051070856995,-27.576916768566292,455.34721802847025,-59.86601643292738,433.8770053937669,-45.38472115587774,21.47021263470333,-14.48129527704964,111.86123158887659,36.875448429652806,343.4859864395936,-96.7414648625801,455.34721802847025,-59.86601643292738,51.27329268009972,32.28909966436109,0.0,0.0,127.89864182579947,-71.11395504486767,109.42679032128348,-28.871413974677168,106.16055429251068,3.243904156964689,111.86123158887659,36.875448429652806,10,1.0558845188140067e-15,494.912995897408,1.819093861293939e-15,494.912995897408,2.220446049250313e-13,0.0,0.04524348173837822,1.2298000945250045,0.04524348173837822
0.03862466441866695,504.1311068472369,-26.567152766907384,451.0021607984753,-59.90303875120401,431.6299582916587,-46.797340878370846,19.37220250681662,-13.105697872833161,109.48309680008788,36.017237822411275,341.51906399838737,-95.92027657361524,451.0021607984753,-59.90303875120401,53.12894604876156,33.335885984296624,0.0,0.0,126.85565198047289,-70.52926315489208,108.66814430123674,-28.66944850771292,105.99526771667776,3.2784350889897382,109.48309680008788,36.017237822411275,10,1.083845997400455e-15,496.0697966686599,1.647723563462578e-15,496.0697966686599,4.440892098500626e-13,0.0,0.04113043794398008,1.2256870507306066,0.04113043794398008
0.039339935981975604,505.458091463232,-24.716202705392973,450.44596798919395,-59.10754756231967,433.1305261901038,-47.35797482246602,17.315441799090138,-11.749572739853647,110.5174829368723,36.042127158047236,339.92848505232166,-95.14967472036696,450.44596798919395,-59.10754756231967,55.01212347403805,34.39134485692669,0.0,0.0,125.91501890147329,-70.00106130928343,107.99133071257928,-28.489649144989627,106.02213543826907,3.3410357339061107,110.5174829368723,36.042127158047236,10,1.176012392763432e-15,496.9151548626659,1.291816178417684e-15,496.9151548626659,2.220446049250313e-13,0.0,0.03701739414958216,1.2215740069362084,0.03701739414958216
0.04005520754528425,506.85501974841674,-26.901080693214652,449.9325714949227,-62.35612991951021,434.1671982909105,-51.62614386101697,15.765373204012178,-10.729986058493239,105.68778100829275,34.66699372407329,344.2447904866299,-97.02312364358346,449.9325714949227,-62.35612991951021,56.92244825349406,35.45504922629556,0.0,0.0,128.41048667691894,-71.40997204987744,109.5630936699945,-28.914024347716634,106.27121013971646,3.300872754010612,105.68778100829275,34.66699372407329,10,9.449391168401077e-16,458.0079055802748,1.0105033591714335e-15,458.0079055802748,2.220446049250313e-13,0.0,0.03290435035518402,1.2174609631418103,0.03290435035518402
0.0407704791085929,507.09905827428975,-24.055947171660982,448.2395196155851,-60.58251941587358,434.64451090286207,-51.30192348447406,13.595008712723029,-9.280595931399517,107.33742286286885,34.97225557465808,340.9020967527162,-95.5547749905316,448.2395196155851,-60.58251941587358,58.85953865870468,36.526572244212595,0.0,0.0,126.53013584454945,-70.3558636155955,108.2762345481741,-28.566677600589422,106.09572635999265,3.3677662256533125,107.33742286286885,34.97225557465808,10,8.858468575223571e-16,459.2732247165281,8.988092577186545e-16,459.2732247165281,4.440892098500626e-13,0.0,0.0287913065607861,1.2133479193474124,0.0287913065607861
0.04148575067190154,508.6788425808308,-21.96184613961831,447.8558345493131,-59.56733352774975,436.29146525056694,-51.64930039621652,11.564369298746158,-7.918033131533235,108.67079296724364,35.14684947213766,339.18504158206946,-94.71418299988744,447.8558345493131,-59.56733352774975,60.82300803151768,37.60548738813144,0.0,0.0,125.49657870259217,-69.77611108124395,107.54419581481558,-28.37100099381609,106.14426706466169,3.4329290751726234,108.67079296724364,35.14684947213766,10,1.2081634137487004e-15,460.45851504630724,1.8348012660247302e-15,460.45851504630724,1.1102230246251565e-13,0.0,0.02467826276638796,1.2092348755530145,0.02467826276638796
0.04220102223521019,510.2614603505821,-20.060307781361374,447.4489954691077,-58.75167635991872,437.87850246460056,-52.17924628163439,9.570493004507114,-6.572430078284327,109.73392932068525,35.20121847764736,337.7150661484224,-93.95289483756605,447.4489954691077,-58.75167635991872,62.81246488147444,38.691368578557345,0.0,0.0,124.57328816109435,-69.2572181565342,106.89535267339417,-28.197989927742185,106.24642531393388,3.502313246710358,109.73392932068525,35.20121847764736,10,1.1048506759375895e-15,461.43824639711283,2.0288584812942374e-15,461.43824639711283,4.440892098500626e-13,0.0,0.02056521897199004,1.2051218317586163,0.02056521897199004
0.042916293798518836,503.6864665022807,-24.185143179678214,438.8589535179184,-63.968933475625334,431.01744730253745,-58.56779595576515,7.841506215380946,-5.401137519860185,97.93162633848677,31.987876889891226,340.9273271794316,-95.95681036551647,438.8589535179184,-63.968933475625334,64.82751298436236,39.78379029594712,0.0,0.0,126.99288413100568,-70.62377596037514,108.42419216838009,-28.609570583530747,105.51025088004583,3.276536178389364,97.93162633848677,31.987876889891226,10,9.677986050494751e-16,425.4421898668247,1.830581881975135e-15,425.4421898668247,4.440892098500626e-13,0.0,0.01645217517759212,1.2010087879642184,0.01645217517759212
0.04363156536182749,503.23010313518836,-21.50517769446205,436.3623516533204,-62.38750539152713,430.5673290668743,-58.38408124011042,5.795022586446066,-4.003424151416709,98.92318278738145,32.14997581904434,337.43916886593894,-94.53748121057149,436.3623516533204,-62.38750539152713,66.86775148186796,40.88232769706508,0.0,0.0,125.13252926116662,-69.58007613421489,107.16363553163899,-28.268759901635235,105.14300407313331,3.3113548252786416,98.92318278738145,32.14997581904434,10,1.2854057720637018e-15,426.68452526282846,1.4122360369621828e-15,426.68452526282846,2.220446049250313e-13,0.0,0.01233913138319398,1.1968957441698205,0.01233913138319398
0.044346836925136135,504.00920664694786,-19.583629358656324,435.07643166464374,-61.570186089416325,431.24259565192875,-58.913757662812486,3.8338360127149826,-2.6564284266038385,99.5448826036609,32.18146798942492,335.5315490609828,-93.75165407884123,435.07643166464374,-61.570186089416325,68.93277498230412,41.98655673076,0.0,0.0,124.11912394598895,-69.01092469757604,106.45424505251893,-28.07860946467008,104.95818006247498,3.3378800834048405,99.5448826036609,32.18146798942492,10,1.182256881322436e-15,427.92222104486825,1.5489791878312077e-15,427.92222104486825,2.220446049250313e-13,0.0,0.00822608758879606,1.1927827003754223,0.00822608758879606
0.04506210848844478,504.5931652798272,-17.891672510438475,433.57099161744867,-60.98772676356475,431.66727578662767,-59.66475020854753,1.9037158308209996,-1.3229765550172203,99.76330827800489,32.071350835668355,333.80768333944377,-93.05907759923312,433.57099161744867,-60.98772676356475,71.02217366237849,43.096054253126276,0.0,0.0,123.22161264042872,-68.50588149022676,105.82944412692449,-27.911674178699087,104.75662657209054,3.3584780696927368,99.76330827800489,32.071350835668355,10,1.1026517183824263e-15,429.0559469601872,1.2457111316066062e-15,429.0559469601872,4.440892098500626e-13,0.0,0.004113043794398141,1.1886696565810244,0.004113043794398141
0.04577738005175343,481.7989591614389,-32.4715917832245,453.2144352403819,-52.25175049893744,453.2144352403819,-52.25175049893744,0.0,0.0,116.11627500252392,42.719971479779616,337.09816023785794,-94.97172197871706,453.2144352403819,-52.25175049893744,28.58452392105705,19.780158715712947,0.0,0.0,125.56753482079586,-69.83091545348405,107.29785566827294,-28.306797000270564,104.23276974878917,3.165990475037546,116.11627500252392,42.719971479779616,11,1.118649863456082e-15,576.2816535960341,1.7972284820208618e-15,576.2816535960341,2.220446049250313e-13,0.0,0.0,1.3161740142073626,0.0
0.046492651615062074,480.98355414757566,-29.40638994575018,451.01973498236697,-50.07186752740421,394.338892005282,-14.135799834006434,56.68084297708498,-35.936067693397774,117.91015919170708,43.27753687764053,333.1095757906599,-93.34940440504477,451.01973498236697,-50.07186752740421,29.963819165208683,20.665477581654027,0.0,0.0,123.35628131132049,-68.55416701030688,106.05980720836669,-27.97218374571044,103.69348727097272,3.1769463509725426,117.91015919170708,43.27753687764053,10,1.0950506994307733e-15,578.7749166078315,1.018532096067017e-15,578.7749166078315,2.220446049250313e-13,0.0,0.12750435762633816,1.3120609704129647,0.12750435762633816
0.04720792317837072,481.8193687109089,-27.387944131922605,450.44803668687166,-48.9517489719081,395.96757087164434,-14.30151381772697,54.48046581522732,-34.65023515418113,119.34148546047192,43.680759023522185,331.1065512263997,-92.6325079954303,450.44803668687166,-48.9517489719081,31.371332024037258,21.563804839985497,0.0,0.0,122.40788147581503,-68.0242449799871,105.36842961720403,-27.78704802660493,103.33024013338067,3.178785011161736,119.34148546047192,43.680759023522185,10,8.452425435748029e-16,581.6619164069425,1.8335146614177385e-15,581.6619164069425,4.440892098500626e-13,0.0,0.12339131383194024,1.3079479266185665,0.12339131383194024
0.047923194741679366,482.4257821799418,-25.647293908751823,449.61907937836173,-48.121989324708636,397.2651369588411,-14.719193919605289,52.35394241952065,-33.40279540510335,120.33452822832682,43.889484257385746,329.2845511500349,-92.01147358209437,449.61907937836173,-48.121989324708636,32.806702801580045,22.474695415956813,0.0,0.0,121.57870007071361,-67.56040647332154,104.76208749911353,-27.62541360129594,102.94376358020776,3.1743464925230995,120.33452822832682,43.889484257385746,10,1.1175508526141198e-15,584.9852051231461,1.120626867995849e-15,584.9852051231461,2.220446049250313e-13,0.0,0.11927827003754232,1.3038348828241686,0.11927827003754232
0.04863846630498802,483.55136639079063,-27.881137674096838,449.28179931684184,-51.27884184277576,397.63916649231913,-18.224805130865946,51.64263282452271,-33.054036711909816,116.45973777224962,42.5018360286131,332.8220615445922,-93.78067787138886,449.28179931684184,-51.27884184277576,34.269567073948785,23.397704168678924,0.0,0.0,123.83725673327557,-68.83448333898923,106.16874812946718,-28.00390339508712,102.81605668184946,3.057708862687491,116.45973777224962,42.5018360286131,10,1.134310922109585e-15,536.8881323018912,1.065121872221169e-15,536.8881323018912,2.220446049250313e-13,0.0,0.11516522624314418,1.2997218390297705,0.11516522624314418
0.049353737868296665,483.5911806632755,-24.9831385808666,447.831624875888,-49.31552459460971,398.7160289399703,-17.780461265143288,49.115595935917725,-31.535063329466425,118.56228279838082,43.140572044008266,329.2693420775072,-92.45609663861799,447.831624875888,-49.31552459460971,35.75955578738751,24.33238601374311,0.0,0.0,122.07640027506577,-67.84864834918763,104.94922530744445,-27.675048833503197,102.24371649499695,3.0676005440728886,118.56228279838082,43.140572044008266,10,9.814453103545524e-16,540.5945569031172,1.471260119828509e-15,540.5945569031172,4.440892098500626e-13,0.0,0.11105218244874626,1.2956087952353725,0.11105218244874626
0.05006900943160531,484.9361631045093,-22.83685744583533,447.65986774719136,-48.11515349113341,400.682854182096,-17.858711064753834,46.977013565095376,-30.25644242637958,120.36915645700292,43.63723975366956,327.2907112901884,-91.75239324480299,447.65986774719136,-48.11515349113341,37.27629535731795,25.27829604529808,0.0,0.0,121.14809908094506,-67.32928078323727,104.27149098171665,-27.494297337589302,101.87112122752673,3.071184876023537,120.36915645700292,43.63723975366956,10,1.2187882562215128e-15,545.2471409607413,1.2464978906569411e-15,545.2471409607413,4.440892098500626e-13,0.0,0.10693913865434834,1.2914957514409746,0.10693913865434834
0.05078428099491396,486.11779791907054,-20.97067952935197,447.2983901507275,-47.20566918690014,402.39161616183304,-18.192209146317566,44.906773988894486,-29.013460040582572,121.77630171111976,43.93764370484085,325.5220884396078,-91.143312891741,447.2983901507275,-47.20566918690014,38.819407768342984,26.23498965754817,0.0,0.0,120.34219850442342,-66.87784042786971,103.67924313364244,-27.337256264887884,101.50064680154188,3.071783801016622,121.77630171111976,43.93764370484085,10,1.1064748543571274e-15,550.8195794898991,1.2598817774259235e-15,550.8195794898991,4.440892098500626e-13,0.0,0.1028260948599502,1.2873827076465765,0.1028260948599502
0.051499552558222604,486.9403411639193,-23.544351740028016,446.55183048874267,-50.74637440566357,402.514292225934,-22.204905170680775,44.03753826280865,-28.5414692349828,117.29652092149641,42.05872521434365,329.25530956724623,-92.80509962000718,446.55183048874267,-50.74637440566357,40.388510675176626,27.202022665635557,0.0,0.0,122.53320825597481,-68.1145212944653,105.04777075490716,-27.70388048343301,101.67433055636423,3.013302157891161,117.29652092149641,42.05872521434365,10,1.0537262961540121e-15,500.73883115338293,1.820567568731551e-15,500.73883115338293,2.220446049250313e-13,0.0,0.09871305106555206,1.2832696638521786,0.09871305106555206
0.05221482412153125,487.35849885472965,-20.594640607602056,445.37528135025605,-48.77359203347396,403.75160501780226,-21.712823733268294,41.62367633245378,-27.060768300205666,119.56650789127934,42.718261222907145,325.8087734589767,-91.49185325638106,445.37528135025605,-48.77359203347396,41.98321750447359,28.178951425871904,0.0,0.0,120.8015654068607,-67.14435175589678,103.84804776320664,-27.381132050698007,101.1591602889094,3.0336305502136867,119.56650789127934,42.718261222907145,10,8.014260638860745e-16,503.5394954045358,1.8291607582337848e-15,503.5394954045358,2.220446049250313e-13,0.0,0.09460000727115414,1.2791566200577806,0.09460000727115414
0.0529300956848399,489.17046321004767,-18.362744966349915,445.5673256525222,-47.528077921632246,406.0203606864681,-21.737649191681385,39.54696496605408,-25.79042872995086,121.62182304505718,43.26451403697247,323.94550260746496,-90.79259195860467,445.5673256525222,-47.528077921632246,43.603137557525486,29.16533295528233,0.0,0.0,119.89553800278608,-66.6369403928844,103.18617154375605,-27.2052065298519,100.86379306092284,3.0495549641316018,121.62182304505718,43.26451403697247,10,1.4485197146002782e-15,506.9939991623568,1.2957684524142883e-15,506.9939991623568,4.440892098500626e-13,0.0,0.09048696347675622,1.2750435762633825,0.09048696347675622
0.05364536724814855,490.9230220251039,-16.378933875228608,445.6751459113104,-46.53965892565452,408.142804410731,-21.987261511899646,37.53234150057938,-24.552397413754875,123.36216406666121,43.64829093592171,322.31298184464924,-90.1879498615763,445.6751459113104,-46.53965892565452,45.24787611379352,30.160725050425913,0.0,0.0,119.11434619646029,-66.19888393457992,102.61116457013577,-27.053316855571133,100.58747107805311,3.0642509285748076,123.36216406666121,43.64829093592171,10,1.3977204269131998e-15,511.0580243631184,1.6947434642363775e-15,511.0580243631184,4.440892098500626e-13,0.0,0.08637391968235808,1.2709305324689846,0.08637391968235808
0.054360638811457196,490.95027937666885,-19.15611296222282,444.03324484141916,-50.320799367682355,407.5241724849226,-26.36346244599008,36.509072356496574,-23.957336921692274,117.93156739194932,41.46151889508411,326.1016774494698,-91.78231826276638,444.03324484141916,-50.320799367682355,46.917034535249655,31.164686405459534,0.0,0.0,121.2387445719469,-67.39866001312323,103.97256343517003,-27.414535776918257,100.89036944235286,3.030877527275109,117.93156739194932,41.46151889508411,10,9.250177745477192e-16,466.86037374683644,2.202060233510745e-15,466.86037374683644,4.440892098500626e-13,0.0,0.08226087588796016,1.2668174886745864,0.08226087588796016
0.05507591037476584,491.5880073353721,-16.211401661252985,442.97779696388085,-48.3881783906603,408.7694375347181,-25.871468498268314,34.208359429162726,-22.516709892391987,120.21276140123949,42.09643292756064,322.7650355626414,-90.484611318221,442.97779696388085,-48.3881783906603,48.61021037149122,32.176776729407315,0.0,0.0,119.53867644162662,-66.44567042207578,102.79863964831806,-27.099051763399665,100.42771947269672,3.0601108672544513,120.21276140123949,42.09643292756064,10,8.703463215156704e-16,468.99351058287635,1.1837764597238497e-15,468.99351058287635,4.440892098500626e-13,0.0,0.07814783209356224,1.2627044448801885,0.07814783209356224
0.05579118193807449,493.6974875801337,-13.948944643746067,443.37049011453104,-47.14550150635023,411.1777487414635,-25.89034478708959,32.19274137306752,-21.25515671926064,122.35682745233706,42.64827296191086,321.01366266219395,-89.79377446826106,443.37049011453104,-47.14550150635023,50.326997465602695,33.19655686260416,0.0,0.0,118.65608285465872,-65.95102742607483,102.15927666501872,-26.92921928149797,100.19830314251651,3.086472239311746,122.35682745233706,42.64827296191086,10,9.286651985059572e-16,471.5005142368014,1.162589434424083e-15,471.5005142368014,4.440892098500626e-13,0.0,0.0740347882991641,1.2585914010857904,0.0740347882991641
0.056506453501383135,495.84931554668947,-11.897629322749438,443.7823294859606,-46.12121821502586,413.5499605108056,-26.09912929814095,30.232368975154998,-20.02208891688491,124.27485881996026,43.07621098833319,319.5074706660003,-89.19742920335898,443.7823294859606,-46.12121821502586,52.06698606072889,34.223588892276425,0.0,0.0,117.90018308295022,-65.52683910760113,101.60831726300125,-26.783766285880844,99.99897032004883,3.113176190122985,124.27485881996026,43.07621098833319,10,9.891459154538337e-16,474.30497277406096,1.2243978065612641e-15,474.30497277406096,4.440892098500626e-13,0.0,0.06992174450476618,1.2544783572913925,0.06992174450476618
0.05722172506469178,494.7769392465347,-14.961648854191665,440.94717633920163,-50.21908512142039,411.8884185450361,-30.915030546332105,29.058757794165558,-19.304054575088287,117.6084853651801,40.51570395400705,323.3386909740215,-90.73478907542741,440.94717633920163,-50.21908512142039,53.829762907333084,35.25743626722873,0.0,0.0,119.96029680304032,-66.6908809553656,102.95707534162021,-27.139769201138876,100.42131882936097,3.0958610810770892,117.6084853651801,40.51570395400705,10,9.77543159459516e-16,435.7468403388689,1.6070181447799484e-15,435.7468403388689,2.220446049250313e-13,0.0,0.06580870071036804,1.2503653134969945,0.06580870071036804
0.057936996628000434,495.56330369823445,-12.038451995618438,439.9483923271303,-48.33611590721921,413.0781060402131,-30.431397044144262,26.870286286917235,-17.904718863074947,119.85499810119278,41.12055932320531,320.0933942259376,-89.45667523042454,439.9483923271303,-48.33611590721921,55.61491137110414,36.29766391160077,0.0,0.0,118.29309965078963,-65.75596469445878,101.80949194752374,-26.831783564778462,99.99080262762418,3.1310730288127075,119.85499810119278,41.12055932320531,10,1.0150337582098249e-15,437.5840458851046,1.5614170057066363e-15,437.5840458851046,4.440892098500626e-13,0.0,0.06169565691597012,1.2462522697025964,0.06169565691597012
0.05865226819130908,497.900154303613,-9.7610326009397,440.47814276212785,-47.10487093860354,415.5637433299791,-30.452826002230722,24.91439943214874,-16.652044936372818,122.04839376810105,41.67360779741047,318.4297489940268,-88.77847873601402,440.47814276212785,-47.10487093860354,57.42201154148515,37.34383833766384,0.0,0.0,117.4344619181991,-65.27451123711104,101.19266010413718,-26.66820561227889,99.80262697169054,3.1642381133758732,122.04839376810105,41.67360779741047,10,1.1900737173134178e-15,439.71081582399336,9.696010056464372e-16,439.71081582399336,2.220446049250313e-13,0.0,0.05758261312157198,1.2421392259081985,0.05758261312157198
0.059367539754617726,496.9655282606695,-8.607412045377117,437.7148879198804,-47.002939802999265,414.7084366077915,-31.579332534292803,23.006451312088927,-15.423607268706462,120.77779975094174,41.20570572964341,316.93708816893866,-88.20864553264263,437.7148879198804,-47.002939802999265,59.25064034078905,38.39552775762215,0.0,0.0,116.70394324242241,-64.86436017358287,100.66481788927102,-26.52915748020601,99.56832703724521,3.184872121146256,120.77779975094174,41.20570572964341,10,9.090149165361276e-16,442.07622849510574,1.1428309555469688e-15,442.07622849510574,2.220446049250313e-13,0.0,0.05346956932717406,1.2380261821138006,0.05346956932717406
0.06008281131792637,493.528010463374,-12.260521695517859,432.42763882950226,-51.712823889906616,410.74189257824514,-37.13036779232405,21.685746251257115,-14.582456097582565,111.72750171992533,38.001586395279546,320.700137109577,-89.71441028518618,432.42763882950226,-51.712823889906616,61.10037163387179,39.45230219438876,0.0,0.0,118.70287969625738,-65.99421620880037,101.96946918098591,-26.87472223752478,100.02778823233365,3.1545281611390124,111.72750171992533,38.001586395279546,10,1.1331267196935147e-15,407.0480134074294,1.1835602567653427e-15,407.0480134074294,2.220446049250313e-13,0.0,0.04935652553277614,1.2339131383194024,0.04935652553277614
0.06079808288123502,494.7928282563281,-9.254331492133332,431.82205191799915,-49.76806508343583,412.2140727595422,-36.542878639781634,19.607979158456942,-13.225186443654195,114.30927342525754,38.693445981393324,317.51277849274163,-88.46151106482918,431.82205191799915,-49.76806508343583,62.97077633832897,40.5137335913025,0.0,0.0,117.06903141697867,-65.07777762065768,100.84470726905396,-26.573354807170745,99.599039806709,3.1896213629992474,114.30927342525754,38.693445981393324,10,1.2199853951600348e-15,408.7368871353611,1.4999689955510383e-15,408.7368871353611,2.220446049250313e-13,0.0,0.045243481738378,1.2298000945250045,0.045243481738378
0.061513354444543665,497.5351150094459,-6.902709965038426,432.6736924742592,-48.482105885794795,414.96363168625277,-36.50092855122011,17.710060788006444,-11.981177334574681,116.76399308623792,39.31819011123554,315.9096993880213,-87.80029599703033,432.6736924742592,-48.482105885794795,64.86142253518673,41.57939592075637,0.0,0.0,116.2344073105599,-64.6096432060637,100.24822874263384,-26.41530859699366,99.42706333482754,3.2246558060270303,116.76399308623792,39.31819011123554,10,1.0600285847575967e-15,410.70803391165,7.493421294024735e-16,410.70803391165,4.440892098500626e-13,0.0,0.04113043794398008,1.2256870507306066,0.04113043794398008
0.06222862600785232,500.46280061732625,-4.710350864517196,433.6909250372725,-47.3592161562232,417.8385151386573,-36.602431446684875,15.852409898615178,-10.756784709538323,119.11423811499327,39.87312403915456,314.5766869222791,-87.23234019537762,433.6909250372725,-47.3592161562232,66.77187558005375,42.648865291706,0.0,0.0,115.5290073539884,-64.2134689513887,99.74171405824153,-26.28191256895238,99.30596551004925,3.263041324963396,119.11423811499327,39.87312403915456,10,1.0394952029832474e-15,412.94910318461694,1.9720244028373643e-15,412.94910318461694,1.6653345369377348e-13,0.0,0.03701739414958216,1.2215740069362084,0.03701739414958216
0.06294389757116096,488.6014799138029,-10.442966695062296,419.89978169910233,-54.16468675108851,405.5123478682583,-44.372557639115286,14.387433830844031,-9.792129111973225,102.30107202954991,34.64785782512597,317.5987096695525,-88.81254457621452,419.89978169910233,-54.16468675108851,68.70169821470058,43.721720056026214,0.0,0.0,117.46989092006423,-65.31071817834948,100.99764960615617,-26.615792432450732,99.13116914333207,3.1139660345856726,102.30107202954991,34.64785782512597,10,1.0910856428648862e-15,380.61935857194374,1.635854545060221e-15,380.61935857194374,2.220446049250313e-13,0.0,0.03290435035518402,1.2174609631418103,0.03290435035518402
0.0636591691344696,488.7931011473375,-7.7500459677424445,418.1426504682986,-52.547586881431414,405.72423474096513,-44.07020590845224,12.418415727333468,-8.477380972979176,103.8310253169443,35.05944996974304,314.3116251513543,-87.60703685117446,418.1426504682986,-52.547586881431414,70.65045067903888,44.79754091368897,0.0,0.0,115.86917364190387,-64.412745812033,99.89077082268155,-26.319787410353804,98.55168068676886,3.1254963712123356,103.8310253169443,35.05944996974304,10,1.1335769689451395e-15,382.2085116017431,1.755346482862025e-15,382.2085116017431,2.220446049250313e-13,0.0,0.0287913065607861,1.2133479193474124,0.0287913065607861
0.06437444069777826,490.34231584168543,-5.71705777485613,417.72462501822156,-51.5929687915862,407.14816711283106,-44.35136110193008,10.576457905390498,-7.241607689656121,105.16012741033782,35.39896793312198,312.5644976078837,-86.99193672470821,417.72462501822156,-51.5929687915862,72.61769082346389,45.87591101673007,0.0,0.0,115.05839581963563,-63.9578847885054,99.30765692675641,-26.165785969578323,98.19844486149172,3.1317340333754657,105.16012741033782,35.39896793312198,10,8.553151478787913e-16,384.0917757564763,9.338345952372326e-16,384.0917757564763,2.220446049250313e-13,0.0,0.02467826276638796,1.2092348755530145,0.02467826276638796
0.06508971226108691,491.8973850276629,-3.8697240988283994,417.29441080613185,-50.82614017080621,408.52759486695567,-44.80563191321124,8.766815939176183,-6.020508257594969,106.25797199187059,35.65231160589066,311.03643881426126,-86.47845177669686,417.29441080613185,-50.82614017080621,74.60297422153106,46.95641607197781,0.0,0.0,114.37844689451622,-63.57580210807397,98.81316693783945,-26.036042746036387,97.84482498190562,3.133393077413487,106.25797199187059,35.65231160589066,10,9.529564637678336e-16,386.2942727387754,1.1390636895510182e-15,386.2942727387754,2.220446049250313e-13,0.0,0.020565218971989818,1.2051218317586163,0.020565218971989818
0.06580498382439555,487.70570060599573,-7.472904004425409,411.0998463230629,-55.51154844693923,403.93965777888803,-50.57969772051621,7.160188544174844,-4.931850726423022,96.98341569439869,32.483833047185925,314.1164306286642,-87.99538149412513,411.0998463230629,-55.51154844693923,76.60585428293285,48.03864444251382,0.0,0.0,116.26586274986131,-64.64265659014579,100.04301180022212,-26.362089679663747,97.80755607858075,3.0093647756844035,96.98341569439869,32.483833047185925,10,9.0535776862919e-16,356.3983553534127,2.3180639884378816e-15,356.3983553534127,2.220446049250313e-13,0.0,0.0164521751775919,1.2010087879642184,0.0164521751775919
0.0665202553877042,487.7295455655341,-4.862905135563679,409.10366319878784,-53.985092383402815,403.8059205625582,-50.325209632890136,5.297742636229657,-3.659882750512679,98.34458864000189,32.84280996890479,310.75907455878587,-86.82790235230755,409.10366319878784,-53.985092383402815,78.62588236674628,49.122187247839136,0.0,0.0,114.69986780478419,-63.76378046436092,98.9485630299744,-26.069674532492193,97.11064372402731,3.0055526445455456,98.34458864000189,32.84280996890479,10,1.0272229953384996e-15,357.9096493990657,1.6368548630482075e-15,357.9096493990657,2.220446049250313e-13,0.0,0.01233913138319398,1.1968957441698205,0.01233913138319398
0.06723552695101284,489.20264448959995,-2.8732356301503756,408.5400365946832,-53.07987409286815,405.0303992804909,-50.648080219883155,3.5096373141923323,-2.431793872984997,99.61026075768616,33.164863974830794,308.92977583699707,-86.24473806769893,408.5400365946832,-53.07987409286815,80.66260789491673,50.20663846271778,0.0,0.0,113.91485318852027,-63.32295337333611,98.37428675199915,-25.918103603333535,96.64063589647768,2.9963189089706788,99.61026075768616,33.164863974830794,10,1.0507235722588543e-15,359.7289432201306,1.1230084368006105e-15,359.7289432201306,4.440892098500626e-13,0.0,0.00822608758879606,1.1927827003754223,0.00822608758879606
0.0679507985143215,490.81593933464654,-1.027460875896388,408.10036086870133,-52.31905589056558,406.35467819561507,-51.10590362656097,1.7456826730862645,-1.2131522640046057,100.7801591242416,33.44445826683449,307.3202017444598,-85.76351415740012,408.10036086870133,-52.31905589056558,82.71557846594523,51.29159501466919,0.0,0.0,113.26116172753564,-62.95524814587682,97.88902716845703,-25.79091250312004,96.17001284846711,2.9826464915967534,100.7801591242416,33.44445826683449,10,8.446892778785492e-16,361.9137925956338,1.6908560547552588e-15,361.9137925956338,1.6653345369377348e-13,0.0,0.004113043794398141,1.1886696565810244,0.004113043794398141
0.06866607007763015,467.71417872456715,-15.887541841596153,430.36333395538395,-42.22207881983189,430.36333395538395,-42.22207881983189,0.0,0.0,119.84253854807687,44.98955595282409,310.5207954073071,-87.21163477265597,430.36333395538395,-42.22207881983189,37.35084476918321,26.33453697823574,0.0,0.0,115.09928238574784,-63.99384908869691,99.120956405538,-26.11509171262547,96.30055661602125,2.897306028666435,119.84253854807687,44.98955595282409,11,9.43135117273587e-16,487.9541102417339,1.085714798930521e-15,487.9541102417339,2.220446049250313e-13,3.469446951953614e-18,0.0,1.3161740142073626,0.0
0.06938134164093879,468.0834893051602,-12.725142181649524,429.2857127670971,-39.98882169720184,377.3181906363145,-7.042062944652429,51.967522130782584,-32.946758752549414,122.43192553862426,45.86291279344344,306.8537872284728,-85.85173449064524,429.2857127670971,-39.98882169720184,38.7977765380631,27.26367951555232,0.0,0.0,113.23861593743047,-62.918760676280904,98.0396354043264,-25.826343816536223,95.57553588671598,2.8933700021718636,122.43192553862426,45.86291279344344,10,1.007441055406036e-15,489.6677161899222,1.4961376445501628e-15,489.6677161899222,2.220446049250313e-13,0.0,0.12750435762633816,1.3120609704129647,0.12750435762633816
0.07009661320424744,470.3345531751646,-10.398444414916376,430.0687610509328,-38.599199146287674,380.0541334172635,-6.7901751073736705,50.014627633669306,-31.809024038914004,124.98740334138112,46.7040268201025,305.0813577095517,-85.30322596639022,430.0687610509328,-38.599199146287674,40.265792124231815,28.200754731371298,0.0,0.0,112.50948437532402,-62.51165405629704,97.4761875825713,-25.6777378247439,95.09568575165638,2.8861659146507463,124.98740334138112,46.7040268201025,10,1.1690521566337603e-15,491.60301667518286,8.264433812914284e-16,491.60301667518286,4.440892098500626e-13,0.0,0.12339131383194024,1.3079479266185665,0.12339131383194024
0.07081188476755608,472.76903055263716,-8.224338218928345,431.0145545602409,-37.369657298861966,382.87818070000503,-6.658481000119934,48.13637386023589,-30.711176298742032,127.46727494268511,47.48440026119303,303.5472796175557,-84.85405756005488,431.0145545602409,-37.369657298861966,41.754475992396216,29.14531907993362,0.0,0.0,111.91099234468857,-62.17734076017574,97.00240799843343,-25.553725363643423,94.63387927443378,2.877008563764207,127.46727494268511,47.48440026119303,10,8.489470846328022e-16,493.7866987993703,1.5385709414445032e-15,493.7866987993703,2.220446049250313e-13,0.0,0.11927827003754232,1.3038348828241686,0.11927827003754232
0.07152715633086473,470.85990360380686,-11.500137492229669,427.596493241663,-41.5970686868298,380.24970124374374,-11.293397944345685,47.34679199791924,-30.303670742484115,120.7151673758911,44.63561857062551,306.8813258657719,-86.23268725745534,427.596493241663,-41.5970686868298,43.263410362143865,30.09693119460013,0.0,0.0,113.69372412133144,-63.183039364713565,98.24123008137153,-25.878301846686675,94.9463716630689,2.828653953944908,120.7151673758911,44.63561857062551,10,8.177917114227353e-16,455.79023289865216,1.8946864950029017e-15,455.79023289865216,4.440892098500626e-13,0.0,0.11516522624314418,1.2997218390297707,0.11516522624314418
0.07224242789417337,471.8938274471526,-8.53873327547985,427.1016521294069,-39.59388527021747,382.01083444815725,-10.643634383752755,45.09081768124963,-28.950250886464715,123.4462667694277,45.52602989458555,303.65538535997916,-85.11991516480302,427.1016521294069,-39.59388527021747,44.79217531774573,31.05515199473762,0.0,0.0,112.22290806807914,-62.359983578848606,97.1734561951294,-25.593502057717473,94.25902109677067,2.833570471763025,123.4462667694277,45.52602989458555,10,1.0368665139112026e-15,458.6798148812801,1.401695502079691e-15,458.6798148812801,2.220446049250313e-13,0.0,0.11105218244874626,1.2956087952353728,0.11105218244874626
0.07295769945748203,474.4943866575398,-6.156855992557304,428.1540377394149,-38.176400783846304,384.96900502160406,-10.362810574873492,43.18503271781083,-27.813590208972812,126.18925086192935,46.396730456138656,301.9647868774856,-84.57313123998503,428.1540377394149,-38.176400783846304,46.34034891812492,32.019544791289,0.0,0.0,111.51000208823928,-61.961650726616526,96.62181689741033,-25.44826778527227,93.832967891836,2.8367872719037877,126.18925086192935,46.396730456138656,10,1.0463041127223238e-15,462.30802985025247,2.1792394224609376e-15,462.30802985025247,3.3306690738754696e-13,0.0,0.10693913865434812,1.2914957514409746,0.10693913865434812
0.07367297102079068,472.6037117825326,-5.4650126603376705,424.69620447557475,-38.45468805133578,383.3499245317927,-11.742038813308852,41.346279943782065,-26.712649238026927,124.16859776260358,45.66986861142489,300.5276067129712,-84.12455666276071,424.69620447557475,-38.45468805133578,47.90750730695786,32.98967539099811,0.0,0.0,110.92800617581294,-61.6362899159004,96.16059764883009,-25.327847296311944,93.43900288832813,2.839580549451668,124.16859776260358,45.66986861142489,10,1.0111274422012164e-15,466.8279114305335,2.1901154027000333e-15,466.8279114305335,1.1102230246251565e-13,0.0,0.1028260948599502,1.2873827076465765,0.1028260948599502
0.07438824258409932,474.32166326571644,-7.693369250473282,424.8284384428388,-41.658481449736286,384.3928597229748,-15.45198339761194,40.435578719864,-26.206498052124346,120.87506650802695,43.800633243398124,303.9533719348118,-85.45911469313437,424.8284384428388,-41.658481449736286,49.49322482287768,33.965112199263004,0.0,0.0,112.67448184514245,-62.62168501279884,97.39143275952827,-25.650300981065556,93.88745733014107,2.8128713007300092,120.87506650802695,43.800633243398124,10,1.570672455366746e-15,426.5725997956162,8.757514201626917e-16,426.5725997956162,2.220446049250313e-13,0.0,0.09871305106555206,1.2832696638521786,0.09871305106555206
0.07510351414740797,475.7940022268341,-4.652152778131821,424.69692811708484,-39.597579099723134,386.4244785830649,-14.715925567662481,38.27244953401993,-24.881653532060653,123.88530628942138,44.755615825798785,300.8116218276635,-84.35319492552193,424.69692811708484,-39.597579099723134,51.097074109749244,34.94542632159131,0.0,0.0,111.22576432518255,-61.81073949220675,96.33575781476641,-25.369194221706053,93.25009968771451,2.826738788390884,123.88530628942138,44.755615825798785,10,9.010745061452843e-16,429.0762095963847,8.627396019036596e-16,429.0762095963847,2.220446049250313e-13,0.0,0.09460000727115414,1.2791566200577806,0.09460000727115414
0.07581878571071661,478.7645384677356,-2.2066049230863953,426.0459122407512,-38.13679658671788,389.63386916344774,-14.391099480061769,36.41204307730345,-23.74569710665611,126.84155903437929,45.67184246042537,299.20435320637193,-83.80863904714329,426.0459122407512,-38.13679658671788,52.71862622698437,35.93019166363148,0.0,0.0,110.52795202623285,-61.42063747333853,95.7949891644641,-25.227163198721634,92.88141201567498,2.839161624916855,126.84155903437929,45.67184246042537,10,1.1510289684714868e-15,432.32926145745984,1.7443601702714517e-15,432.32926145745984,4.440892098500626e-13,0.0,0.09048696347675622,1.2750435762633825,0.09048696347675622
0.07653405727402526,482.0125181766543,0.11096403600770799,427.65506741678803,-36.80802099374688,393.0441382304262,-14.166939202936476,34.61092918636183,-22.641081790810404,129.7994574271148,46.55465112000617,297.8556099896732,-83.362672113753,427.65506741678803,-36.80802099374688,54.35745075986625,36.91898502975459,0.0,0.0,109.96138433411153,-61.103710509636045,95.34538472413973,-25.11013161172741,92.54884093142195,2.851170007610449,129.7994574271148,46.55465112000617,10,9.57032862072465e-16,436.5797397383444,1.52084952712543e-15,436.5797397383444,1.6653345369377348e-13,0.0,0.08637391968235808,1.2709305324689846,0.08637391968235808
0.0772493288373339,469.12387468029004,-6.665293564700086,413.1107587504359,-44.57667978486285,379.5307606054845,-22.541660152553845,33.57999814495139,-22.035019632309,111.70450554856612,40.07779722072735,301.4062532018698,-84.65447700559018,413.1107587504359,-44.57667978486285,56.01311592985418,37.91138622016276,0.0,0.0,111.67423060102219,-62.07004614310049,96.55342645843335,-25.427401097892044,93.17859614241425,2.8429702354023476,111.70450554856612,40.07779722072735,10,1.1256628653091224e-15,399.5693348018624,1.3586538462003136e-15,399.5693348018624,2.220446049250313e-13,0.0,0.08226087588796016,1.2668174886745867,0.08226087588796016
0.07796460040064256,469.75595952726053,-3.91874143721229,412.070770822425,-42.82571956371129,380.56270791465386,-22.086594595958616,31.508062907771148,-20.739124967752673,113.73807302121305,40.732450820134744,298.33269780121196,-83.55817038384602,412.070770822425,-42.82571956371129,57.68518870483554,38.906978126499,0.0,0.0,110.24626220201652,-61.2705309408788,95.50605112397864,-25.149153287562314,92.58038447521682,2.8615138445950947,113.73807302121305,40.732450820134744,10,1.2775637676299908e-15,401.64679050013274,1.6588569595419344e-15,401.64679050013274,2.220446049250313e-13,0.0,0.07814783209356202,1.2627044448801885,0.07814783209356202
0.07867987196395121,471.7760936622089,-1.7862534483937864,412.4028587529122,-41.6916002743294,382.71145020443225,-22.08807967466805,29.691408548479956,-19.60352059966135,115.61891545077478,41.32865069258676,296.7839433021374,-83.02025096691611,412.4028587529122,-41.6916002743294,59.37323490929668,39.90534682593562,0.0,0.0,109.56263626349468,-60.888201985110086,94.9724754487946,-25.009517492072497,92.24883158984814,2.8774685102664677,115.61891545077478,41.32865069258676,10,1.233122971662081e-15,404.3039344794223,1.5793427910629927e-15,404.3039344794223,2.220446049250313e-13,0.0,0.0740347882991641,1.2585914010857904,0.0740347882991641
0.07939514352725985,473.8679436611434,0.16916609319344644,412.7911243267613,-40.73691558052508,384.86493666942334,-22.24224397385177,27.926187657337948,-18.494671606673307,117.30175419034515,41.845732486591984,295.4893701364161,-82.58264806711699,412.7911243267613,-40.73691558052508,61.076819334382115,40.906081673718525,0.0,0.0,109.01067621719059,-60.57929080195355,94.53053411275047,-24.89499399466996,91.94815980647503,2.8916367295065015,117.30175419034515,41.845732486591984,10,9.934951636462007e-16,407.7291763454282,1.3227495133001743e-15,407.7291763454282,2.220446049250313e-13,0.0,0.06992174450476618,1.2544783572913925,0.06992174450476618
0.0801104150905685,466.50062555607553,-4.761163773733969,403.7051197082642,-46.66993916787854,376.92942340179684,-28.88265949707136,26.775696306467353,-17.78727967080718,104.63635003099375,37.18256220530813,299.06876967727044,-83.85250137318667,403.7051197082642,-46.66993916787854,62.79550584781136,41.90877539414457,0.0,0.0,110.69221719952269,-61.527727055645286,95.70982715466536,-25.205855907873868,92.66672532308239,2.881081590332485,104.63635003099375,37.18256220530813,10,1.3821622824196545e-15,374.92726847956885,1.3278211122734413e-15,374.92726847956885,2.220446049250313e-13,0.0,0.06580870071036804,1.2503653134969945,0.06580870071036804
0.08082568665387714,466.6061026308837,-2.2055682135515866,402.07724512726014,-45.118592383501635,377.2837242181296,-28.59778014536124,24.793520909130564,-16.520812238140394,106.08376501681052,37.65749196344632,295.9934801104496,-82.7760843469479,402.07724512726014,-45.118592383501635,64.52885750362354,42.91302416995005,0.0,0.0,109.28382308389155,-60.73904559349455,94.66577919693461,-24.9293579754438,92.04387782962344,2.8923192219904337,106.08376501681052,37.65749196344632,10,1.2964099387304916e-15,376.7719637216089,1.2967344883931582e-15,376.7719637216089,2.220446049250313e-13,0.0,0.06169565691597012,1.2462522697025966,0.06169565691597012
0.0815409582171858,468.13057761840935,-0.24157665444953125,401.85414096668836,-44.16000438453989,378.8349966026696,-28.77474278391753,23.019144364018757,-15.385261600622357,107.42787504097329,38.09597896192895,294.4262659257151,-82.25598334646881,401.85414096668836,-44.16000438453989,66.27643665172097,43.91842773009036,0.0,0.0,108.61358992186001,-60.36408780008202,94.13453957951972,-24.791044282061776,91.67813642433538,2.899148735674956,107.42787504097329,38.09597896192895,10,9.454909907739289e-16,379.1033898365562,1.299993095064236e-15,379.1033898365562,1.1102230246251565e-13,0.0,0.05758261312157198,1.2421392259081985,0.05758261312157198
0.08225622978049443,469.80064782284046,1.5770633599209845,401.76284277565964,-43.34752607596786,380.4746155102621,-29.075852747925353,21.288227265397552,-14.27167332804251,108.66274400763311,38.491349508776466,293.1000987680266,-81.83887558474436,401.76284277565964,-43.34752607596786,68.0378050471808,44.92458943588885,0.0,0.0,108.0755221261102,-60.062830408714525,93.69545593700661,-24.67794434342138,91.3291207049098,2.901899167391548,108.66274400763311,38.491349508776466,10,8.073828591445338e-16,382.0809994046033,1.5621338416481193e-15,382.0809994046033,2.220446049250313e-13,0.0,0.05346956932717406,1.2380261821138006,0.05346956932717406
0.08297150134380309,466.82714900499417,-1.9715120273471243,397.01462504568633,-47.90262839288451,376.99581849672416,-34.441135799200254,20.018806548962175,-13.461492593684255,100.43195369058049,35.19917646029704,296.58267135510584,-83.10180485318156,397.01462504568633,-47.90262839288451,69.81252395930785,45.931116365537385,0.0,0.0,109.72744564458229,-60.99432793688878,94.8560368657811,-24.98430325478065,91.99918884474246,2.876826338487888,100.43195369058049,35.19917646029704,10,8.053929320114651e-16,352.2996863048388,9.523508478231859e-16,352.2996863048388,4.440892098500626e-13,0.0,0.04935652553277592,1.2339131383194024,0.04935652553277592
0.08368677290711174,466.92535020392774,0.5371572068104129,395.3251959235329,-46.40046219011529,377.20002723645007,-34.17542529746686,18.125168687082805,-12.225036892648433,101.85569894886525,35.64695548000165,293.46949697466755,-82.04741767011691,395.3251959235329,-46.40046219011529,71.60015428039488,46.937619396925705,0.0,0.0,108.33748798555585,-60.215910939171806,93.81457187442163,-24.7090805092187,91.31743711469005,2.8775737782736,101.85569894886525,35.64695548000165,10,1.1693636570140667e-15,354.0071752076962,1.5654418855420677e-15,354.0071752076962,2.220446049250313e-13,0.0,0.045243481738378,1.2298000945250045,0.045243481738378
0.08440204447042038,468.5281859377785,2.4857044560948154,395.12792930361144,-45.45800883269061,378.7361743533509,-34.3687027425633,16.39175495026052,-11.089306090127309,103.26738589398852,36.08715025522946,291.86054340962295,-81.54515908792007,395.12792930361144,-45.45800883269061,73.40025663416709,47.943713288785425,0.0,0.0,107.67981765753143,-59.84791702325743,93.28625693997023,-24.571838792533313,90.8944688121213,2.8745967278706885,103.26738589398852,36.08715025522946,10,8.893114895553978e-16,356.15920812664217,8.13942526335865e-16,356.15920812664217,4.440892098500626e-13,0.0,0.04113043794398008,1.2256870507306066,0.04113043794398008
0.08511731603372903,470.38488482799636,4.3219344964763025,395.17249334411883,-44.62708226365095,380.47878345332947,-34.656549240584496,14.693709890789364,-9.970533023066452,104.67708217472625,36.51882115544268,290.4954111693926,-81.14590341909367,395.17249334411883,-44.62708226365095,75.21239148387752,48.94901676012725,0.0,0.0,107.15487189008806,-59.55393960903568,92.85172409391818,-24.46008457656631,90.48881518538636,2.8681207665083335,104.67708217472625,36.51882115544268,10,7.970071435336229e-16,358.9101280953819,2.843789157959196e-15,358.9101280953819,1.6653345369377348e-13,0.0,0.03701739414958216,1.2215740069362084,0.03701739414958216
0.08583258759703767,468.99314617091693,1.284115633431405,391.95702693089004,-48.66903693452451,378.65108937014895,-39.61298675715608,13.305937560741086,-9.056050177368434,98.07817108949646,33.73104866156501,293.8788558413936,-82.40008559608955,391.95702693089004,-48.66903693452451,77.03611924002686,49.95315256795592,0.0,0.0,108.77842638020599,-60.46932345257331,94.01675504182978,-24.7667314947577,91.08367441935785,2.8359693512414594,98.07817108949646,33.73104866156501,10,1.0264910453441915e-15,331.49491402219644,1.3246837396531205e-15,331.49491402219644,2.220446049250313e-13,0.0,0.03290435035518402,1.2174609631418105,0.03290435035518402
0.08654785916034632,469.1743924359056,3.757210385306699,390.30339206822526,-47.19853719793963,378.80359547747963,-39.348252382381105,11.499796590745632,-7.850284815558524,99.5534720880172,34.16315715186829,290.74991998020806,-81.36169434980792,390.30339206822526,-47.19853719793963,78.87100036768035,50.95574758324633,0.0,0.0,107.40573399635366,-59.70059202869947,92.98085906051031,-24.49317031251678,90.3633269233441,2.8320679914082945,99.5534720880172,34.16315715186829,10,1.0835869546991327e-15,333.0981479829612,1.1376044011902542e-15,333.0981479829612,2.220446049250313e-13,0.0,0.0287913065607861,1.2133479193474124,0.0287913065607861
0.08726313072365498,470.91858297507304,5.690544057686722,390.2019874817228,-46.26588880747664,380.39581631392497,-39.551691535334754,9.806171167797856,-6.714197272141888,101.07082027164509,34.60437004727966,289.1311672100777,-80.87025885475626,390.2019874817228,-46.26588880747664,80.71659549335024,51.956432865163364,0.0,0.0,106.75988206321308,-59.339191090514646,92.45733369654677,-24.35729610787633,89.91395145031788,2.826228343634696,101.07082027164509,34.60437004727966,10,9.479779976562819e-16,335.1197277524322,2.031333877621522e-15,335.1197277524322,3.3306690738754696e-13,0.0,0.02467826276638796,1.2092348755530145,0.02467826276638796
0.08797840228696362,472.9800107876781,7.528522767071998,390.40754527625774,-45.426320966440215,382.2678446406787,-39.8364772465992,8.13970063557906,-5.589843719841014,102.63924951313979,35.05454879351656,287.76829576311786,-80.48086975995669,390.40754527625774,-45.426320966440215,82.57246551142038,52.95484373351221,0.0,0.0,106.24806155459422,-59.05243737033162,92.0278604628117,-24.246880112120763,89.49237374571196,2.8184477224956694,102.63924951313979,35.05454879351656,10,8.549816628852327e-16,337.7134591141313,1.6821334842248607e-15,337.7134591141313,2.220446049250313e-13,0.0,0.020565218971989818,1.2051218317586163,0.020565218971989818
0.08869367385027227,471.72926440109876,4.585762208069248,387.2910927110164,-49.364857631333734,380.657093366857,-44.79544053727244,6.633999344159406,-4.5694170940612935,96.2209624165428,32.36400898687397,291.0701302944736,-81.7288666182077,387.2910927110164,-49.364857631333734,84.43817169008234,53.95061983940298,0.0,0.0,107.846309021556,-59.95329805151622,93.21236552255667,-24.55746685312402,90.01145575036094,2.781898286432515,96.2209624165428,32.36400898687397,10,9.840505978599836e-16,312.40787028602085,1.052367310441111e-15,312.40787028602085,4.440892098500626e-13,0.0,0.0164521751775919,1.2010087879642184,0.0164521751775919
0.08940894541358091,471.9023073626247,6.990018111895097,385.58903158586753,-47.95338712222119,380.67457227820944,-44.558291361208404,4.914459307658092,-3.395095761012783,97.63481875863769,32.748615576467,287.95421282722975,-80.70200269868813,385.58903158586753,-47.95338712222119,86.31327577675717,54.943405234116284,0.0,0.0,106.49200709001788,-59.19461772037788,92.18234999516636,-24.285293734150223,89.27985574204556,2.7779087558399382,97.63481875863769,32.748615576467,10,1.0839128311731353e-15,313.92145714227763,1.344841445307501e-15,313.92145714227763,2.220446049250313e-13,0.0,0.01233913138319398,1.1968957441698205,0.01233913138319398
0.09012421697688956,473.6727440000687,8.867449856110085,385.4754038970939,-47.06539858004615,382.2158437613913,-44.80688080816179,3.2595601357026,-2.2585177718843568,99.12178602782754,33.15220412520796,286.3536178692664,-80.21760270525415,385.4754038970939,-47.06539858004615,88.1973401029748,55.932848436156235,0.0,0.0,105.85953443370784,-58.840395137386224,91.6637533776172,-24.150483039487398,88.83033005794135,2.7732754716194563,99.12178602782754,33.15220412520796,10,1.0026365164148996e-15,315.83088853220045,2.040761738304576e-15,315.83088853220045,2.220446049250313e-13,0.0,0.00822608758879606,1.1927827003754223,0.00822608758879606
0.0908394885401982,471.34548128578814,9.055845792292324,381.25555359710245,-47.8627567041861,379.632083031551,-46.734535049685576,1.623470565551429,-1.1282216545005213,96.23700938290224,31.97225841993047,285.0185442142002,-79.83501512411657,381.25555359710245,-47.8627567041861,90.08992768868568,56.91860249647842,0.0,0.0,105.36153724407087,-58.561115506311566,91.24048646172648,-24.041507853957746,88.41652050840283,2.7676082361527605,96.23700938290224,31.97225841993047,10,9.913034171882277e-16,318.2871920652904,1.0043071304030924e-15,318.2871920652904,2.220446049250313e-13,0.0,0.004113043794398141,1.1886696565810244,0.004113043794398141
0.09155476010350685,451.7285016278935,-4.565663420500979,407.6999919117607,-36.11094166467021,407.6999919117607,-36.11094166467021,0.0,0.0,119.42821704603594,44.96407066708221,288.27177486572486,-81.07501233175248,407.6999919117607,-36.11094166467021,44.028509716132774,31.54527824416923,0.0,0.0,106.93832636988053,-59.449411895526275,92.43839023513286,-24.35531777533614,88.89505826071145,2.7297173391099534,119.42821704603594,44.96407066708221,11,8.939089529306383e-16,430.6942406318792,1.2734222098727904e-15,430.6942406318792,4.440892098500626e-13,0.0,0.0,1.3161740142073626,0.0
0.09227003166681551,452.2332835064981,-1.5687935584462593,406.80185644253805,-34.010206746460454,358.5233244749499,-3.4027689043060434,48.27853196758815,-30.60743784215441,121.95109757810205,45.836669370952464,284.85075886443593,-79.84687611741288,406.80185644253805,-34.010206746460454,45.431427063960044,32.441413188014195,0.0,0.0,105.27711117780312,-58.48808238458291,91.41561561687948,-24.08497631345012,88.15803206975336,2.72618258062014,121.95109757810205,45.836669370952464,10,1.1506398257681945e-15,431.9671500867715,8.075745580354897e-16,431.9671500867715,2.220446049250313e-13,0.0,0.12750435762633816,1.3120609704129647,0.12750435762633816
0.09298530323012415,454.6053177041997,0.6422785549893035,407.7570706367468,-32.69836488351797,361.2477883244798,-3.1191063530207543,46.509282312266976,-29.579258530497214,124.45844159173238,46.690322550374304,283.29862904501437,-79.38868743389223,407.7570706367468,-32.69836488351797,46.8482470674529,33.34064343850727,0.0,0.0,104.68612748063498,-58.15932674438296,90.90378773889148,-23.951871473582955,87.70871382548793,2.7225107840736626,124.45844159173238,46.690322550374304,10,1.3650235005628357e-15,433.3804489015555,1.5763374740352037e-15,433.3804489015555,2.220446049250313e-13,0.0,0.12339131383194024,1.3079479266185665,0.12339131383194024
0.0937005747934328,457.2979937836902,2.7502939155700687,409.01944012289516,-31.492273732305534,364.2070830940491,-2.902077393560745,44.812357028846066,-28.59019633874479,127.0049666066837,47.539910392221,282.01447351621147,-79.03218412452652,409.01944012289516,-31.492273732305534,48.278553660795,34.2425676478756,0.0,0.0,104.22898321525231,-57.90515825019858,90.48847097682787,-23.844943035310912,87.2970193241313,2.7179171609829638,127.0049666066837,47.539910392221,10,1.2754480890517983e-15,434.9506187762238,7.774780421672648e-16,434.9506187762238,4.440892098500626e-13,0.0,0.11927827003754232,1.3038348828241686,0.11927827003754232
0.09441584635674144,446.83294251286463,-3.3897190822911867,397.1110115557507,-38.5365075513798,353.09275393003236,-10.36361305044096,44.01825762571832,-28.17289450093884,111.85461009673989,41.71539039977527,285.2564014590108,-80.25189795115512,397.1110115557507,-38.5365075513798,49.72193095711395,35.14678846908861,0.0,0.0,105.78500928476407,-58.780569534695445,91.67860981311358,-24.15749116845989,87.79278236113316,2.6861627520002287,111.85461009673989,41.71539039977527,10,1.118623231309248e-15,403.10321090264546,1.2376822213087465e-15,403.10321090264546,1.6653345369377348e-13,0.0,0.1151652262431444,1.2997218390297707,0.1151652262431444
0.09513111792005009,446.9907919426575,-0.8710424145651103,395.8128285931865,-36.92395504581114,353.85298132715025,-9.984169129661296,41.95984726603626,-26.939785916149845,113.61197668898457,42.34155180474866,282.20085190420195,-79.26550685055986,395.8128285931865,-36.92395504581114,51.177963349470986,36.05291263124603,0.0,0.0,104.49304359734673,-58.05918873556138,90.66227549321717,-23.88894393047348,87.04553281363806,2.6826258154750278,113.61197668898457,42.34155180474866,10,9.57535547596976e-16,405.4198238707514,2.270943851644559e-15,405.4198238707514,4.440892098500626e-13,0.0,0.11105218244874626,1.2956087952353725,0.11105218244874626
0.09584638948335873,448.57323947631966,1.076407527138656,395.9270038650429,-35.88414348600821,355.7039533633097,-9.97838437883587,40.223050501733155,-25.905759107172344,115.27326738170648,42.92732364451206,280.6537364833364,-78.81146713052023,395.9270038650429,-35.88414348600821,52.646235611276786,36.96055101314687,0.0,0.0,103.90773638462703,-57.7332940323208,90.15620064195407,-23.75741551725995,86.58979945675529,2.6792424190605075,115.27326738170648,42.92732364451206,10,9.395198661444427e-16,408.2804840108729,1.1201344665692565e-15,408.2804840108729,2.220446049250313e-13,0.0,0.10693913865434834,1.2914957514409746,0.10693913865434834
0.09656166104666739,450.3123579009475,2.869459812960372,396.1860249048381,-34.99985890206719,357.63495919816415,-10.093183054527145,38.55106570667397,-24.906675847540043,116.80939296655836,43.46002410102014,279.3766319382798,-78.45988300308734,396.1860249048381,-34.99985890206719,54.12633299610939,37.86931871502756,0.0,0.0,103.45702376554539,-57.482417548766335,89.74754033434927,-23.652315046318613,86.17206783838516,2.674849591997585,116.80939296655836,43.46002410102014,10,9.019392496530838e-16,411.8270490389701,1.3296358245538757e-15,411.8270490389701,1.6653345369377348e-13,0.0,0.1028260948599502,1.2873827076465765,0.1028260948599502
0.09727693260997604,443.6264332816362,-2.0116705646774946,388.0085919447299,-40.79050569313222,350.352188406578,-16.385373148719765,37.65640353815189,-24.405132544412453,105.32625556166418,38.861944768495604,282.68233638306583,-79.65245046162786,388.0085919447299,-40.79050569313222,55.61784133690628,38.77883512845472,0.0,0.0,105.0010450411887,-58.35086197533012,90.91166929793835,-23.959214511919853,86.76962204393875,2.6576260256221076,105.32625556166418,38.861944768495604,10,9.928806220851283e-16,378.34833941442815,1.403748367362348e-15,378.34833941442815,2.220446049250313e-13,0.0,0.09871305106555206,1.2832696638521786,0.09871305106555206
0.09799220417328468,443.41333676235024,0.37963266039059107,386.2929896178394,-39.3090913439741,350.6205980590351,-16.11787029361915,35.67239155880429,-23.191221050354955,106.65724636571164,39.36216382665084,279.6357432521278,-78.67125517062492,386.2929896178394,-39.3090913439741,57.12034714451084,39.688724004364694,0.0,0.0,103.71753074756305,-57.63389100028524,89.8985894475452,-23.69181683195294,86.01962305701957,2.6544526616132273,106.65724636571164,39.36216382665084,10,9.765786974370982e-16,380.5253536149372,1.0454990502139124e-15,380.5253536149372,2.220446049250313e-13,0.0,0.09460000727115414,1.2791566200577806,0.09460000727115414
0.09870747573659333,444.6745220893208,2.2255662735900685,386.04108438377506,-38.37304724564663,352.07371280843097,-16.22164581635988,33.96737157534409,-22.15140142928675,107.94278396710627,39.847094187599936,278.0983004166688,-78.22014143324658,386.04108438377506,-38.37304724564663,58.633437705545774,40.5986135192367,0.0,0.0,103.13754754923445,-57.31069808347911,89.39481557069203,-23.56113379246637,85.5659372967423,2.6516904426989,107.94278396710627,39.847094187599936,10,9.036637098007831e-16,383.3492669294239,1.808923944429611e-15,383.3492669294239,2.220446049250313e-13,0.0,0.09048696347675622,1.2750435762633825,0.09048696347675622
0.09942274729990197,446.17079720411095,3.9501611839959097,386.0140960245204,-37.55797515539456,353.6946065644428,-16.415849921015308,32.31948946007765,-21.14212523437925,109.18028300173243,40.31430693832745,276.8338130227879,-77.87228209372196,386.0140960245204,-37.55797515539456,60.156701179590506,41.50813633939047,0.0,0.0,102.69299934960293,-57.06299822707669,88.98908314280544,-23.45705366634764,85.15173053037958,2.6477697997023384,109.18028300173243,40.31430693832745,10,8.316559788999775e-16,387.08371868324645,1.6998198559394104e-15,387.08371868324645,2.220446049250313e-13,0.0,0.0863739196823583,1.2709305324689846,0.0863739196823583
0.10013801886321062,443.0241952122972,0.24628244400611266,381.33446851665616,-42.17064723939376,350.0117147787099,-21.616876948340945,31.322753737946243,-20.553770291052814,101.11456129246653,36.870151493774216,280.2199072241896,-79.04079873316796,381.33446851665616,-42.17064723939376,61.68972669564104,42.41692968339987,0.0,0.0,104.2255248178749,-57.92471796289117,90.12414118096224,-23.757195475610146,85.87024122535252,2.6411147053333366,101.11456129246653,36.870151493774216,10,8.504130926103218e-16,355.7718871891434,1.1141384849752113e-15,355.7718871891434,4.440892098500626e-13,0.0,0.08226087588796038,1.2668174886745864,0.08226087588796038
0.10085329042651928,442.8015716772763,2.596953788158011,379.56946722944997,-40.72768159445465,350.1563899433383,-21.367525573896273,29.413077286111672,-19.360156020558378,102.39175526379293,37.338077249151,277.17771196565707,-78.06575884360565,379.56946722944997,-40.72768159445465,63.232104447826316,43.32463538261266,0.0,0.0,102.95010798738227,-57.21203584560968,89.11101304784849,-23.49021929799906,85.11659093042628,2.636496300003145,102.39175526379293,37.338077249151,10,8.561218562472228e-16,357.679351081519,2.27606818632154e-15,357.679351081519,2.220446049250313e-13,0.0,0.07814783209356224,1.2627044448801885,0.07814783209356224
0.10156856198982792,444.122527216948,4.4263957579248725,379.33910142658647,-39.804504181845004,351.5997660908048,-21.48981456882032,27.739335335781675,-18.314689613024683,103.70290003119516,37.81555668829651,275.63620139539137,-77.62006087014157,379.33910142658647,-39.804504181845004,64.78342579036152,44.23089993976988,0.0,0.0,102.37516872046044,-56.89144825103864,88.60619218701007,-23.359627221840036,84.65484048792084,2.6310146027371246,103.70290003119516,37.81555668829651,10,8.162840294745627e-16,360.1492371037257,2.1343860855740966e-15,360.1492371037257,2.220446049250313e-13,0.0,0.07403478829916432,1.2585914010857904,0.07403478829916432
0.10228383355313657,445.7629518246557,6.160189658442,379.4196684929428,-38.975184927274256,353.3047815276131,-21.6800549056382,26.114886965329674,-17.295130021636055,105.05704748080058,38.30458115639155,274.3626210121422,-77.27976608366578,379.4196684929428,-38.975184927274256,66.34328333171293,45.13537458571626,0.0,0.0,101.93655248291014,-56.64685654105849,88.20010742976169,-23.255811716852385,84.22596109947034,2.622902174245098,105.05704748080058,38.30458115639155,10,1.01296008779187e-15,363.41974858523776,1.413179347431448e-15,363.41974858523776,2.220446049250313e-13,0.0,0.06992174450476618,1.2544783572913925,0.06992174450476618
0.10299910511644521,443.9562993553222,2.890237753013821,376.0450283273659,-43.14747758118361,351.0301578887005,-26.529939107744894,25.01487043866541,-16.617538473438714,98.34047840400828,35.29828014226625,277.70454992335766,-78.44575772344984,376.0450283273659,-43.14747758118361,67.91127102795626,46.03771533419743,0.0,0.0,103.45787582825194,-57.50210479063196,89.31777621733198,-23.55144657274873,84.92889787777372,2.607793639930854,98.34047840400828,35.29828014226625,10,9.818790705806037e-16,335.27049284765167,9.399425679119907e-16,335.27049284765167,2.220446049250313e-13,0.0,0.06580870071036804,1.2503653134969945,0.06580870071036804
0.10371437667975386,443.7771417059806,5.200705689212057,374.2901574306779,-41.73687734552317,351.1105521550352,-26.291469177684206,23.1796052756427,-15.445408167838963,99.66020249752691,35.74534034641192,274.62995493315094,-77.48221769193509,374.2901574306779,-41.73687734552317,69.48698427530275,46.937583034735226,0.0,0.0,102.19019336045491,-56.793602636306716,88.30378908777178,-23.28462795343477,84.13597248492425,2.5960128978064247,99.66020249752691,35.74534034641192,10,8.383932939945147e-16,337.00260889404876,1.7339259641531664e-15,337.00260889404876,1.6653345369377348e-13,0.0,0.06169565691597012,1.2462522697025964,0.06169565691597012
0.1044296482430625,445.1851933520227,7.004104483897208,374.11517335024865,-40.83053893968065,352.5784070859312,-26.43603657653867,21.536766264317464,-14.394502363141982,101.05439457898345,36.2142279050626,273.0607787712652,-77.04476684474321,374.11517335024865,-40.83053893968065,71.07002000177401,47.83464342357786,0.0,0.0,101.61997034944152,-56.47552152643195,87.79737484667167,-23.153916305564273,83.64343357515199,2.5846709872530127,101.05439457898345,36.2142279050626,10,1.1083765181906455e-15,339.2274005291713,1.0644559308914015e-15,339.2274005291713,2.220446049250313e-13,0.0,0.0575826131215722,1.2421392259081985,0.0575826131215722
0.10514491980637115,446.95771488622756,8.722997647558998,374.2977381282209,-40.005569525162315,354.36254227510693,-26.64095094835119,19.935195853113953,-13.364618576811125,102.52998277178509,36.706928088764144,271.7677553564358,-76.71249761392644,374.2977381282209,-40.005569525162315,72.65997675800669,48.72856717272131,0.0,0.0,101.18698456317969,-56.23395641923034,87.39092072120407,-23.050248116550172,83.18985007205208,2.5717069218540374,102.52998277178509,36.706928088764144,10,9.623832572586234e-16,342.15145477210154,1.5565135929092485e-15,342.15145477210154,4.440892098500626e-13,0.0,0.05346956932717428,1.2380261821138006,0.05346956932717428
0.1058601913696798,445.3410073777959,5.560510782045171,371.0845525706345,-44.05851915494998,352.3538116922862,-31.463175806211808,18.730740878348342,-12.595343348738169,96.07288728762947,33.82555726116627,275.01166528300496,-77.88407641611616,371.0845525706345,-44.05851915494998,74.2564548071614,49.61902993699515,0.0,0.0,102.69723674048124,-57.08294257614101,88.51126534426113,-23.34563198882536,83.8031631982626,2.5444981488502094,96.07288728762947,33.82555726116627,10,9.150245678139976e-16,316.52418464198223,9.758248941106943e-16,316.52418464198223,2.220446049250313e-13,0.0,0.04935652553277614,1.2339131383194024,0.04935652553277614
0.10657546293298845,445.11922060146736,7.80015715686779,369.26016438754624,-42.7055552423451,352.2901369146497,-31.25962976021694,16.97002747289656,-11.44592548212816,97.34529370475852,34.22370594716931,271.9148706827877,-76.92926118951436,369.26016438754624,-42.7055552423451,75.85905621392112,50.50571239921289,0.0,0.0,101.43687338292372,-56.37848461814846,87.50128503799529,-23.079692601622455,82.97671226186871,2.528916030256532,97.34529370475852,34.22370594716931,10,8.652078612074166e-16,318.139029195567,1.3984261677221285e-15,318.139029195567,2.220446049250313e-13,0.0,0.04524348173837822,1.2298000945250045,0.04524348173837822
0.1072907344962971,446.5089363488978,9.541112151925098,369.04155141634095,-41.84718816145798,353.6837757759374,-31.457378508363263,15.357775640403531,-10.389809653094716,98.71263244657828,34.6500833198311,270.32891896976264,-76.49727148128906,369.04155141634095,-41.84718816145798,77.46738493255685,51.38830031338308,0.0,0.0,100.87096723019968,-56.06277895344304,86.99941357536899,-22.949792342843615,82.45853816419397,2.515299814997597,98.71263244657828,34.6500833198311,10,9.521076933806664e-16,320.2006481281661,8.686215445801639e-16,320.2006481281661,2.220446049250313e-13,0.0,0.04113043794398008,1.2256870507306064,0.04113043794398008
0.10800600605960574,448.2854542165246,11.201767471211838,369.20440732248375,-41.06471707476683,355.4258301901152,-31.715145777993087,13.778577132368525,-9.349571296773746,100.1763335093627,35.105568494968125,269.02807381312107,-76.17028556973496,369.20440732248375,-41.06471707476683,79.08104689404088,52.26648454597867,0.0,0.0,100.44323494721502,-55.82412326352697,86.59980914848008,-22.847393254232117,81.98502971742592,2.5012309480241797,100.1763335093627,35.105568494968125,10,8.316080919234671e-16,322.89381250014986,1.1128366699343377e-15,322.89381250014986,2.220446049250313e-13,0.0,0.03701739414958216,1.2215740069362084,0.03701739414958216
0.10872127762291439,446.5881601414216,8.07951778114603,365.88851004923026,-45.060443334119924,353.42012736908276,-36.574433121948886,12.4683826801475,-8.486010212171038,93.68073750182907,32.28405479154699,272.2077725474012,-77.34449812566692,365.88851004923026,-45.060443334119924,80.69965009219135,53.139961115265955,0.0,0.0,101.9424444442458,-56.66698210761507,87.73824252566057,-23.14625679669941,82.52708557749486,2.468740778647579,93.68073750182907,32.28405479154699,10,8.556557715270692e-16,299.3280462768492,1.1716092163546192e-15,299.3280462768492,2.220446049250313e-13,0.0,0.03290435035518402,1.2174609631418103,0.03290435035518402
0.10943654918622303,444.6085234313473,9.595580246767064,362.2857187625218,-44.41285098192213,351.503345677139,-37.05230946837602,10.782373085382801,-7.36054151354611,93.18220965652827,31.98326978634934,269.10350910599357,-76.39612076827154,362.2857187625218,-44.41285098192213,82.3228046688255,54.0084312286892,0.0,0.0,100.68896255968855,-55.966403283584974,86.73737667761667,-22.882231346567785,81.67716986868835,2.452513861881229,93.18220965652827,31.98326978634934,10,1.1402221064229085e-15,300.8478807143108,9.816819635059393e-16,300.8478807143108,2.220446049250313e-13,0.0,0.0287913065607861,1.2133479193474124,0.0287913065607861
0.11015182074953168,445.8619096968057,11.243138797918732,361.91178669889706,-43.62846252039631,352.71138294605726,-37.32902634145424,9.200403752839804,-6.299436178942074,94.39780639856427,32.33930885858156,267.5139803003328,-75.96777137897786,361.91178669889706,-43.62846252039631,83.95012299790861,54.871601318315044,0.0,0.0,100.12708133126378,-55.65296898861639,86.2433856783402,-22.753972859101296,81.14351329072879,2.4391704687398175,94.39780639856427,32.33930885858156,10,1.0023424973918974e-15,302.77843743706836,1.1179305692180025e-15,302.77843743706836,2.220446049250313e-13,0.0,0.02467826276638818,1.2092348755530145,0.02467826276638818
0.11086709231284034,447.3648125522649,12.75503836345922,361.7835927835882,-42.974144710875436,354.1405172559916,-37.725350610266986,7.643075527596579,-5.24879410060845,95.5665163767548,32.67054907329731,266.21707640683337,-75.64469378417274,361.7835927835882,-42.974144710875436,85.58121976867668,55.72918307433466,0.0,0.0,99.70486358439996,-55.41734884735599,85.85209014433889,-22.653324440145703,80.66012267809452,2.4259795033289535,95.5665163767548,32.67054907329731,10,9.622388934303177e-16,305.2862921790255,1.5014534177709538e-15,305.2862921790255,2.220446049250313e-13,0.0,0.02056521897199004,1.2051218317586163,0.02056521897199004
0.11158236387614898,441.6326104965843,8.199678141330857,354.41689842886626,-48.38121533529568,348.1912855791567,-44.09308942371814,6.225612849709535,-4.288125911577538,84.99519918403723,28.42962492562735,269.421699244829,-76.81084026092302,354.41689842886626,-48.38121533529568,87.21571206771803,56.580893476626535,0.0,0.0,101.19456260222866,-56.254784603305815,87.00022557703312,-22.954830777748555,81.22691106556724,2.39877512013134,84.99519918403723,28.42962492562735,10,1.0077312035008853e-15,283.55123529539577,8.39107190414108e-16,283.55123529539577,2.220446049250313e-13,0.0,0.01645217517759212,1.2010087879642184,0.01645217517759212
0.11229763543945763,440.85405262712186,10.160052165296364,352.0008331671248,-47.26640265908628,347.38638307613417,-44.078564409754705,4.614450090990658,-3.187838249331577,85.67079416002294,28.600636641096052,266.33003900710185,-75.86703930018228,352.0008331671248,-47.26640265908628,88.85321945999705,57.426454824382645,0.0,0.0,99.94937076795564,-55.5586601548698,86.00688649705057,-22.692371077562562,80.3737817420956,2.3839919322501046,85.67079416002294,28.600636641096052,10,9.695199182887852e-16,284.985820820386,9.694459898788157e-16,284.985820820386,2.220446049250313e-13,0.0,0.01233913138319398,1.1968957441698205,0.01233913138319398
0.11301290700276627,441.55198710711613,11.573901917992188,351.05862303831395,-46.69169284580698,347.99617320719466,-44.56975079045483,3.062449831119295,-2.12194205535215,86.30266695939713,28.749178853237517,264.7559560789168,-75.44087169904452,351.05862303831395,-46.69169284580698,90.4933640688022,58.26559476379917,0.0,0.0,99.39316879753652,-55.248185251365726,85.51880772820913,-22.565285546025116,79.84397955317112,2.372599098346356,86.30266695939713,28.749178853237517,10,9.297536486216668e-16,286.798630630233,1.2070384950884118e-15,286.798630630233,2.220446049250313e-13,0.0,0.00822608758879606,1.1927827003754223,0.00822608758879606
0.11372817856607492,442.5171545441689,12.859970277842912,350.38138388956565,-46.23807603599377,348.85490577540617,-45.177258717635056,1.526478114159488,-1.0608173183587155,86.90023978773968,28.882507732424486,263.481144101826,-75.12058376841824,350.38138388956565,-46.23807603599377,92.13577065460323,59.09804631383668,0.0,0.0,98.97755472763133,-55.0160703167273,85.13432371101659,-22.466124845145472,79.36926566317806,2.361611393454531,86.90023978773968,28.882507732424486,10,1.0302779751011758e-15,289.1387177104927,1.963705482720081e-15,289.1387177104927,2.220446049250313e-13,0.0,0.004113043794398141,1.1886696565810244,0.004113043794398141
0.11444345012938356,417.053347312534,-2.6645929923287923,369.5348911713482,-37.15166115870528,369.5348911713482,-37.15166115870528,0.0,0.0,102.72987929535563,39.1149318271416,266.8050118759926,-76.26659298584696,369.5348911713482,-37.15166115870528,47.51845614118584,34.48706816637649,0.0,0.0,100.46015233745361,-55.84915643066436,86.27539828476883,-22.766736419990025,80.06946125377013,2.349299864807449,102.72987929535563,39.1149318271416,11,1.1454028187878978e-15,393.55362521100386,7.691743503670805e-16,393.55362521100386,2.220446049250313e-13,6.938893903907228e-18,0.0,1.3161740142073626,0.0
0.11515872169269221,416.0308961245354,-0.29137495009782555,367.2437778241296,-35.57889960776748,321.8887875529767,-6.824908913690422,45.35499027115293,-28.75399069407706,103.82130891914399,39.533839712019955,263.42246890498564,-75.11273931978742,367.2437778241296,-35.57889960776748,48.78711830040576,35.28752465766966,0.0,0.0,98.89769651541552,-54.944451915217655,85.28807802279991,-22.505696810009418,79.23669436677022,2.3374094054396153,103.82130891914399,39.533839712019955,10,8.325999245001489e-16,394.56067064066104,1.2081579194891689e-15,394.56067064066104,1.3877787807814457e-13,0.0,0.12750435762633816,1.3120609704129647,0.12750435762633816
0.11587399325600087,416.8512709064433,1.3167958557355206,366.7877844086723,-34.77040115831599,323.0743902337278,-6.9691984576051595,43.71339417494448,-27.80120270071083,104.8756920770983,39.9352665931048,261.912092331574,-74.7056677514208,366.7877844086723,-34.77040115831599,50.06348649777103,36.08719701405151,0.0,0.0,98.37521339012795,-54.654988378585216,84.80472006270602,-22.379732422737455,78.73215887874,2.329053049901894,104.8756920770983,39.9352665931048,10,1.2214225822695508e-15,395.66535885516026,8.394290153437353e-16,395.66535885516026,4.440892098500626e-13,0.0,0.12339131383194024,1.3079479266185665,0.12339131383194024
0.11658926481930951,417.9425906143366,2.8021385367494034,366.5954008243304,-34.08361685064446,324.45019663416156,-7.194900489592982,42.14520419016884,-26.88871636105148,105.89071237939743,40.32114498992598,260.70468844493297,-74.40476184057043,366.5954008243304,-34.08361685064446,51.34718979000618,36.885755387393864,0.0,0.0,97.99324948308639,-54.44383927185777,84.42578639481462,-22.28195698245559,78.28565256703196,2.3210344137429146,105.89071237939743,40.32114498992598,10,9.441830625434332e-16,396.8785410395299,1.7237592322561727e-15,396.8785410395299,4.440892098500626e-13,0.0,0.11927827003754232,1.3038348828241686,0.11927827003754232
0.11730453638261816,415.62926030924785,-0.5471429740599305,362.99140098065357,-38.230017998022475,321.5949339597444,-11.73510777394793,41.39646702090914,-26.494910224074545,98.8586181165474,37.300794164699894,264.13278286410616,-75.53081216272236,362.99140098065357,-38.230017998022475,52.63785932859427,37.682875023962545,0.0,0.0,99.47156722280822,-55.2738124043358,85.54980368315434,-22.57896803056449,79.11141195814359,2.3219682721779478,98.8586181165474,37.300794164699894,10,9.16378080555655e-16,368.9004104276582,2.0955605630678954e-15,368.9004104276582,4.440892098500626e-13,0.0,0.1151652262431444,1.2997218390297705,0.1151652262431444
0.1180198079459268,414.9472970322648,1.563794229687126,361.0121685955601,-36.914442070546926,321.5394612292132,-11.571394290635254,39.472707366346924,-25.34304777991167,99.87243020769988,37.696464775046095,261.13973838786023,-74.61090684559304,361.0121685955601,-36.914442070546926,53.93512843670471,38.47823630023405,0.0,0.0,98.26995097492022,-54.60423403476725,84.56671769091918,-22.319083362620724,78.30306972202082,2.3124105517949403,99.87243020769988,37.696464775046095,10,9.5112289485422e-16,370.8270829261302,1.2424361865665932e-15,370.8270829261302,2.220446049250313e-13,0.0,0.11105218244874626,1.2956087952353725,0.11105218244874626
0.11873507950923545,415.78967033709563,3.1597840306805978,360.5510376520291,-36.11174072609333,322.69603920130334,-11.730996153834553,37.85499845072576,-24.380744572258777,100.8933181536164,38.09012840920214,259.6577194984127,-74.20186913529544,360.5510376520291,-36.11174072609333,55.23863268506651,39.27152475677393,0.0,0.0,97.74720551627419,-54.314249129640984,84.08610539166438,-22.193877163377003,77.82440859047409,2.3062571577225484,100.8933181536164,38.09012840920214,10,8.712779305031599e-16,373.16290098931904,9.967297174527334e-16,373.16290098931904,2.220446049250313e-13,0.0,0.10693913865434834,1.2914957514409746,0.10693913865434834
0.1194503510725441,416.95204575182265,4.646291935191549,360.40403578505175,-35.41613919498744,324.1009755585897,-11.961667147633449,36.30306022646204,-23.45447204735399,101.92326401942024,38.48405291257983,258.4807717656315,-73.90019210756729,360.40403578505175,-35.41613919498744,56.54800996677088,40.062431130178986,0.0,0.0,97.36619943954541,-54.10326935865225,83.71062866139424,-22.097070748574325,77.40394366469187,2.3001479996592877,101.92326401942024,38.48405291257983,10,1.042162025184884e-15,376.01537168242373,2.118224198341147e-15,376.01537168242373,2.220446049250313e-13,0.0,0.1028260948599502,1.2873827076465765,0.1028260948599502
0.12016562263585275,415.48690391915994,1.4653435808966435,357.62400334816994,-39.385307802191505,322.16398072031615,-16.403581233491195,35.46002262785379,-22.98172656870031,95.72406281134818,35.631782023293226,261.89994053682176,-75.01708982548473,357.62400334816994,-39.385307802191505,57.862900570989986,40.85065138308815,0.0,0.0,98.84067096531331,-54.93083623616193,84.8156642498658,-22.38952866392239,78.24360532164266,2.3032750745995614,95.72406281134818,35.631782023293226,10,8.957396755933748e-16,347.0519847147868,1.2862000249558388e-15,347.0519847147868,2.220446049250313e-13,0.0,0.09871305106555206,1.2832696638521786,0.09871305106555206
0.1208808941991614,414.9105199803178,3.5847510785014904,355.72757272471705,-38.05113565376695,322.1270935536261,-16.20680126641895,33.60047917109097,-21.844334387348,96.80827869905053,36.0471136508629,258.91929402566655,-74.09824930462989,355.72757272471705,-38.05113565376695,59.182947255600766,41.63588673226844,0.0,0.0,97.64069052094845,-54.26178311348734,83.8349363863061,-22.130452557985826,77.44366711841201,2.293986366843285,96.80827869905053,36.0471136508629,10,8.690398527626389e-16,348.9592455121553,8.07280226072487e-16,348.9592455121553,2.220446049250313e-13,0.0,0.09460000727115414,1.2791566200577804,0.09460000727115414
0.12159616576247004,415.9132277981658,5.2115920429808185,355.4054324794687,-37.20625163179807,323.39845540300223,-16.333185694865193,32.006977076466455,-20.873065936932875,97.95914405303671,36.483017995108554,257.44628842643186,-73.68926962690654,355.4054324794687,-37.20625163179807,60.50779531869713,42.41784367477889,0.0,0.0,97.11826649546848,-53.97165892778416,83.35500812378098,-22.00558057638154,76.97301380718245,2.2879698772591155,97.95914405303671,36.483017995108554,10,1.0321380336155124e-15,351.3935257800021,1.8655896140666104e-15,351.3935257800021,2.220446049250313e-13,0.0,0.09048696347675622,1.2750435762633825,0.09048696347675622
0.12231143732577869,417.2966288819981,6.750107415644614,355.4595362130157,-36.4461265965769,324.9881786725264,-16.512855556941503,30.47135754048935,-19.9332710396354,99.18024589487955,36.94268719276441,256.27929031813625,-73.38881378934137,355.4595362130157,-36.4461265965769,61.83709266898241,43.19623401222152,0.0,0.0,96.73880063257008,-53.76122987001923,82.98089706674666,-21.909297284221218,76.55959261881947,2.2817133648990904,99.18024589487955,36.94268719276441,10,9.124481488790935e-16,354.56547587700356,1.8782680764803697e-15,354.56547587700356,2.220446049250313e-13,0.0,0.0863739196823583,1.2709305324689844,0.0863739196823583
0.12302670888908733,416.0710466229938,3.6620164599014444,352.90055672796694,-40.30875841318286,323.36805835785975,-20.929682317071666,29.53249837010719,-19.37907609611119,93.28975453876646,34.19757589532526,259.6108021892005,-74.50633430850814,352.90055672796694,-40.30875841318286,63.17048989502681,43.9707748730843,0.0,0.0,98.20936627640265,-54.5864810515543,84.07249286160412,-22.19813311862424,77.32894305119379,2.2782798616703843,93.28975453876646,34.19757589532526,10,7.727590925342437e-16,327.3772395970847,1.1519241240177177e-15,327.3772395970847,1.6653345369377348e-13,0.0,0.08226087588796038,1.2668174886745864,0.08226087588796038
0.12374198045239598,415.49348475793477,5.734029196766514,350.98584442455467,-39.00715953641762,323.24762401158114,-20.749351774732332,27.738220412973533,-18.257807761685285,94.365474889586,34.584467248983515,256.6203695349687,-73.59162678540113,350.98584442455467,-39.00715953641762,64.50764033338008,44.74118873318413,0.0,0.0,97.01172820627427,-53.91844637367582,83.09337468194093,-21.93972822271011,76.5152666467535,2.2665478109847825,94.365474889586,34.584467248983515,10,9.20094197150018e-16,329.1113210726521,1.0526614006189538e-15,329.1113210726521,2.220446049250313e-13,0.0,0.07814783209356224,1.2627044448801885,0.07814783209356224
0.12445725201570464,416.51926368148156,7.322856524944569,350.6710635459528,-38.184346909274126,324.5018115108136,-20.906221778635256,26.16925203513921,-17.27812513063887,95.54215667702253,35.00197990336669,255.12890686893024,-73.1863268126408,350.6710635459528,-38.184346909274126,65.84820013552878,45.507203434218695,0.0,0.0,96.49007715420638,-53.628519151759605,82.61333045046335,-21.815019077532703,76.02549926426052,2.2572114166514936,95.54215667702253,35.00197990336669,10,8.496164614518178e-16,331.33299307726645,1.3340507379948743e-15,331.33299307726645,2.220446049250313e-13,0.0,0.0740347882991641,1.2585914010857904,0.0740347882991641
0.1251725235790133,417.9499977475022,8.828982185159425,350.75816941381686,-37.4395700152746,326.1081530142625,-21.114509923923606,24.650016399554374,-16.32506009135099,96.81687613624804,35.45166326905007,253.94129327756872,-72.89123328432458,350.75816941381686,-37.4395700152746,67.19182833368535,46.26855220043402,0.0,0.0,96.1125685654927,-53.418959435742536,82.23996281173635,-21.719115019755186,75.58876190033972,2.2468411711731093,96.81687613624804,35.45166326905007,10,1.1209944937283287e-15,334.2458323064473,1.4886260225854644e-15,334.2458323064473,2.220446049250313e-13,0.0,0.06992174450476618,1.2544783572913925,0.06992174450476618
0.12588779514232193,416.5506116297546,5.7121955305869605,348.0124247243524,-41.31277812283247,324.3987270967031,-25.626010395078538,23.613697627649287,-15.686767727753931,90.84337001000526,32.70353512240482,257.1690547143471,-74.01631324523723,348.0124247243524,-41.31277812283247,68.53818690540218,47.02497365341943,0.0,0.0,97.57855583579969,-54.24169462093346,83.32901170087649,-22.006667593107224,76.26148717767097,2.2320489688034115,90.84337001000526,32.70353512240482,10,9.517897528761903e-16,309.5901998101338,1.852197534540834e-15,309.5901998101338,2.220446049250313e-13,0.0,0.06580870071036804,1.2503653134969945,0.06580870071036804
0.12660306670563057,415.8843303649835,7.702892935316733,345.99738952798583,-40.07331888972067,324.11178345740456,-25.490109824509176,21.885606070581275,-14.583209065211491,91.8456923572356,33.03586071618636,254.15169717075025,-73.10917960590706,345.99738952798583,-40.07331888972067,69.8869408369977,47.7762118250374,0.0,0.0,96.38380000411458,-53.57507774745464,82.35284309311302,-21.749219681851393,75.41505407352268,2.2151178233989413,91.8456923572356,33.03586071618636,10,8.753801495740382e-16,311.1930843055011,9.215031692572515e-16,311.1930843055011,2.220446049250313e-13,0.0,0.06169565691597012,1.2462522697025964,0.06169565691597012
0.1273183382689392,416.83379753645534,9.215582962994574,345.596039350669,-39.30643320550499,325.25463074807635,-25.71083320371298,20.34140860259265,-13.595600001792008,92.9598363737507,33.40239125694208,252.6362029769183,-72.70882446244705,345.596039350669,-39.30643320550499,71.2377581857863,48.52201616849956,0.0,0.0,95.86317412619009,-53.28558006068306,81.87407726192438,-21.624964339657453,74.89895158880381,2.201719937893465,92.9598363737507,33.40239125694208,10,9.564013112745392e-16,313.2356540551429,1.6096119074104538e-15,313.2356540551429,2.220446049250313e-13,0.0,0.0575826131215722,1.2421392259081985,0.0575826131215722
0.12803360983224787,418.19943451172384,10.646147563115214,345.60912437061876,-38.61599400448546,326.7705943661517,-25.98654909616326,18.83853000446703,-12.6294449083222,94.17626673096285,33.80272362289455,251.43285763965588,-72.41871762737996,345.60912437061876,-38.61599400448546,72.59031014110509,49.26214156760067,0.0,0.0,95.48782951721569,-53.07709775058688,81.50314765154285,-21.52979087081576,74.44188047089732,2.188170994022691,94.17626673096285,33.80272362289455,10,1.199133194515349e-15,315.8984735568412,1.0213087048933127e-15,315.8984735568412,1.3877787807814457e-13,0.0,0.05346956932717406,1.2380261821138003,0.05346956932717406
0.1287488813955565,419.7088273636802,8.756338688760096,345.7645562795541,-41.240009655360666,328.0617339310292,-29.335863450330635,17.702822348524876,-11.904146205030031,91.13207667804872,32.30644645171445,254.63247960150537,-73.54645610707509,345.7645562795541,-41.240009655360666,73.94427108412611,49.99634834412076,0.0,0.0,96.94820066872413,-53.89687839156804,82.60039430442187,-21.81864220112383,75.08388462835939,2.169064485616758,91.13207667804872,32.30644645171445,10,1.0040162666129902e-15,293.3864210110815,1.0088449023112478e-15,293.3864210110815,2.220446049250313e-13,0.0,0.04935652553277614,1.2339131383194024,0.04935652553277614
0.12946415295886515,419.18576339496474,10.746784492569788,343.8864447485165,-39.97761777083821,327.8447844604258,-29.157838676955237,16.041660288090725,-10.819779093882971,92.27363538789969,32.667066486514955,251.6128093606168,-72.64468425735316,343.8864447485165,-39.97761777083821,75.2993186464482,50.724402263407995,0.0,0.0,95.75675093337273,-53.23199185588621,81.63051541602408,-21.562849735096243,74.22554301121998,2.1501573336292807,92.27363538789969,32.667066486514955,10,1.4653624377431413e-15,294.89133275600426,1.6352557247182235e-15,294.89133275600426,2.220446049250313e-13,0.0,0.04524348173837822,1.2298000945250045,0.04524348173837822
0.13017942452217382,416.9619673155822,10.940541423048586,340.306833548122,-40.50553311510669,325.7844963490928,-30.680897297423286,14.522337199029153,-9.8246358176834,90.21004932200496,31.74164226512619,250.096784226117,-72.24717538023287,340.306833548122,-40.50553311510669,76.65513376746028,51.44607453815527,0.0,0.0,95.23726709192914,-52.9430652985873,81.15649539765062,-21.43977279910591,73.70302173653725,2.1356627174603346,90.21004932200496,31.74164226512619,10,8.492272488698032e-16,296.7962846792996,1.3605592077787252e-15,296.7962846792996,2.220446049250313e-13,0.0,0.04113043794398008,1.2256870507306064,0.04113043794398008
0.13089469608548246,418.4451120337153,12.36635461862722,340.4337112832482,-39.79478721175454,327.39805129612284,-30.949316115477103,13.03565998712537,-8.845471096277436,91.5330417475246,32.16541694351405,248.90066953572358,-71.96020415526854,340.4337112832482,-39.79478721175454,78.01140075046712,52.16114183038176,0.0,0.0,94.86416480866154,-52.73578009530213,80.79169296142129,-21.34610527627042,73.24481176564073,2.1216812163040117,91.5330417475246,32.16541694351405,10,1.0191939335972051e-15,299.25992445794043,1.2312136196159082e-15,299.25992445794043,2.220446049250313e-13,0.0,0.03701739414958216,1.2215740069362084,0.03701739414958216
