time_s,total_vertical_force_n,total_pitch_moment_nm,raw_bem_vertical_force_n,raw_bem_pitch_moment_nm,resolved_station_bem_vertical_force_n,resolved_station_bem_pitch_moment_nm,transom_extrapolation_vertical_force_n,transom_extrapolation_pitch_moment_nm,pre_chine_bem_vertical_force_n,pre_chine_bem_pitch_moment_nm,post_chine_bem_vertical_force_n,post_chine_bem_pitch_moment_nm,bem_vertical_force_n,bem_pitch_moment_nm,front_vertical_force_n,front_pitch_moment_nm,transom_vertical_force_n,transom_pitch_moment_nm,longitudinal_bin_aft_post_chine_vertical_force_n,longitudinal_bin_aft_post_chine_pitch_moment_nm,longitudinal_bin_middle_post_chine_vertical_force_n,longitudinal_bin_middle_post_chine_pitch_moment_nm,longitudinal_bin_forward_post_chine_vertical_force_n,longitudinal_bin_forward_post_chine_pitch_moment_nm,longitudinal_bin_pre_chine_vertical_force_n,longitudinal_bin_pre_chine_pitch_moment_nm,active_plane_count,potential_bvp_relative_residual,potential_bvp_condition_number,pressure_bvp_relative_residual,pressure_bvp_condition_number,free_surface_pressure_max_abs_pa,contact_constraint_max_abs_m,aftmost_resolved_station_x_m,foremost_resolved_station_x_m,transom_coverage_gap_m
0.0,297.07854641677307,-36.79268362088229,289.61274420263527,-41.74601182196281,289.61274420263527,-41.74601182196281,0.0,0.0,67.91984413769478,23.66177319511177,221.6929000649405,-65.40778501707454,289.61274420263527,-41.74601182196281,7.465802214137772,4.953328201080517,0.0,0.0,86.59378578614057,-48.2241817815963,71.57662765558842,-18.948535840238,63.52248662321147,1.7649326047597569,67.91984413769478,23.66177319511177,11,1.1995856147431016e-15,963.6741823512789,1.7916527502926727e-15,963.6741823512789,2.220446049250313e-13,3.0531133177191805e-16,0.0,1.3161740142073626,0.0
0.0007152715633086473,297.83214051054927,-35.08512189120496,289.8575992201662,-40.35572851154794,250.26464872725643,-15.248338902822212,39.59295049290978,-25.107389608725725,69.55506083364192,24.13767726152377,220.30253838652436,-64.49340577307176,289.8575992201662,-40.35572851154794,7.974541290383041,5.270606620342976,0.0,0.0,85.45870187499652,-47.556919731797265,70.95397573329464,-18.78124245784643,63.88986077823318,1.84475641657194,69.55506083364192,24.13767726152377,10,1.436785522345067e-15,969.7846313235486,1.1485490050390765e-15,969.7846313235486,1.3877787807814457e-13,0.0,0.12750435762633838,1.3120609704129647,0.12750435762633838
0.0014305431266172946,299.7172671137417,-33.953456694490974,291.21897942681267,-39.5486501356483,253.02550607819867,-15.252277491155837,38.19347334861399,-24.296372644492465,71.12085120800931,24.555816135216965,220.09812821880337,-64.10446627086532,291.21897942681267,-39.5486501356483,8.498287686929007,5.595193441157325,0.0,0.0,85.06065964043577,-47.33611063117123,70.63605946062994,-18.695281726888176,64.40140911773764,1.9269260871941256,71.12085120800931,24.555816135216965,10,1.2288987921433806e-15,977.2949317505166,1.467969476780415e-15,977.2949317505166,2.220446049250313e-13,0.0,0.12339131383194024,1.3079479266185665,0.12339131383194024
0.002145814689925942,301.77063512512706,-32.998184528412814,292.73376692128505,-38.92504750642806,255.87725496275434,-15.405326481485389,36.85651195853072,-23.51972102494267,72.53938000697688,24.874605169527776,220.19438691430818,-63.79965267595583,292.73376692128505,-38.92504750642806,9.036868203842028,5.926862978015242,0.0,0.0,84.78630230326924,-47.18427406684295,70.404230526182,-18.632855237433432,65.00385408485695,2.0174766283205514,72.53938000697688,24.874605169527776,10,9.35257717539681e-16,986.1444037839963,1.031586996837931e-15,986.1444037839963,2.220446049250313e-13,0.0,0.11927827003754232,1.3038348828241686,0.11927827003754232
0.002861086253234589,298.04180387414067,-34.98207167640814,288.45169433184503,-41.24746303191233,252.53576510147826,-18.256088616876724,35.91592923036677,-22.991374415035608,67.35765185698708,23.231034992808837,221.09404247485799,-64.4784980247212,288.45169433184503,-41.24746303191233,9.590109542295636,6.265391355504195,0.0,0.0,85.47424460625174,-47.5653182850947,71.13941422537407,-18.82437488200309,64.48038364323214,1.9111951423766058,67.35765185698708,23.231034992808837,10,1.157429023607071e-15,893.3534847454036,1.795356039290675e-15,893.3534847454036,1.1102230246251565e-13,0.0,0.1151652262431444,1.2997218390297705,0.1151652262431444
0.0035763578165432363,298.76274453662137,-33.48532831299085,288.60490617737446,-40.09588485425843,254.30324351060418,-18.069094420770057,34.301662666770284,-22.026790433488372,68.71110661721323,23.593412807470386,219.8937995601612,-63.6892976617288,288.60490617737446,-40.09588485425843,10.157838359246927,6.6105565412675755,0.0,0.0,84.54492110715059,-47.04756748773383,70.45018835869965,-18.637278918992024,64.89869009431095,1.995548744997052,68.71110661721323,23.593412807470386,10,1.0082401256554014e-15,899.5456545113932,1.1789763015799264e-15,899.5456545113932,2.220446049250313e-13,0.0,0.11105218244874626,1.2956087952353725,0.11105218244874626
0.004291629379851884,300.30669244269455,-32.43077239040047,289.5668111209406,-39.39291076821425,256.67649839270985,-18.206420620344346,32.890312728230754,-21.186490147869904,69.9028547246925,23.85849876281643,219.66395639624807,-63.25140953103069,289.5668111209406,-39.39291076821425,10.73988132175394,6.962138377813781,0.0,0.0,84.0777929048318,-46.78672093711701,70.11655868770715,-18.54651747640592,65.46960480370916,2.0818288824922107,69.9028547246925,23.85849876281643,10,1.2851988056645943e-15,906.1283538158957,1.9278901913004623e-15,906.1283538158957,2.220446049250313e-13,0.0,0.10693913865434834,1.2914957514409746,0.10693913865434834
0.005006900943160531,301.9314836143861,-31.62030045918901,290.5954184534643,-38.94021907236399,259.0376484383154,-18.54866919598311,31.55777001514889,-20.39154987638088,70.8342890495015,23.99421884164793,219.7611294039628,-62.93443791401194,290.5954184534643,-38.94021907236399,11.336065160921825,7.319918613174979,0.0,0.0,83.78096662739185,-46.621552812534325,69.88331315013735,-18.483675705768054,66.0968496264336,2.1707906042904384,70.8342890495015,23.99421884164793,10,1.511682199249452e-15,911.3168131791558,1.2125114469590587e-15,911.3168131791558,2.220446049250313e-13,0.0,0.1028260948599502,1.2873827076465765,0.1028260948599502
0.005722172506469178,293.8729510995999,-34.360678670192904,281.92673437413316,-42.044359600610164,251.3609934122711,-22.23242910635767,30.565740961862048,-19.811930494252493,63.13806793696216,21.80661863845765,218.78866643717103,-63.85097823906784,281.92673437413316,-42.044359600610164,11.946216725466748,7.683680930417261,0.0,0.0,84.44468353624414,-46.98801386483182,70.60927240755933,-18.673719621484658,63.73471049336755,1.8107552472486574,63.13806793696216,21.80661863845765,10,8.633022774295393e-16,828.5430775940196,1.5532933914425687e-15,828.5430775940196,2.220446049250313e-13,0.0,0.09871305106555228,1.2832696638521786,0.09871305106555228
0.0064374440697778255,294.34236340715637,-32.972602218361665,281.7722003722699,-41.02581319436587,252.75905073122624,-22.161845083013105,29.01314964104364,-18.86396811135276,64.2651828204599,22.073488641964133,217.50701755181,-63.09930183633003,281.7722003722699,-41.02581319436587,12.570163034886509,8.053210976004202,0.0,0.0,83.53855820136836,-46.48261079229685,69.93947232424583,-18.49237352601571,64.02898702619581,1.8756824819825582,64.2651828204599,22.073488641964133,10,9.005918715808039e-16,831.6632903658733,1.2666189178146171e-15,831.6632903658733,2.220446049250313e-13,0.0,0.09460000727115414,1.2791566200577806,0.09460000727115414
0.007152715633086473,295.5848240362163,-32.027373275701,282.3770927039894,-40.45566966271704,254.73613350769065,-22.428198501716025,27.640959196298724,-18.027471161001017,65.21754534187389,22.253822541576127,217.15954736211552,-62.709492204293156,282.3770927039894,-40.45566966271704,13.207731332226906,8.428296387016042,0.0,0.0,83.1027876566971,-46.23907688333445,69.62343143994322,-18.40700518507569,64.4333282654752,1.936589864116982,65.21754534187389,22.253822541576127,10,1.4907970300428462e-15,834.1477886273223,1.2397064444027308e-15,834.1477886273223,2.220446049250313e-13,0.0,0.09048696347675622,1.2750435762633825,0.09048696347675622
0.00786798719639512,296.97969419584825,-31.280525515264745,283.12094505941485,-40.089252332492094,256.7852933716487,-22.85997603599239,26.33565168776613,-17.229276296499705,66.00489167148487,22.351603437153095,217.11605338792998,-62.44085576964518,283.12094505941485,-40.089252332492094,13.85874913643339,8.808726817227349,0.0,0.0,82.83428622824442,-46.089547497708786,69.40613729562098,-18.34914087635964,64.87562986406456,1.9978326044232517,66.00489167148487,22.351603437153095,10,9.513109315046393e-16,835.362774209699,1.4502814748850414e-15,835.362774209699,2.220446049250313e-13,0.0,0.0863739196823583,1.2709305324689846,0.0863739196823583
0.008583258759703769,291.061409078368,-33.566896713871316,276.53836478409033,-42.76119067591756,251.1757309421631,-26.117280287603023,25.36263384192722,-16.643910388314538,60.20038200377951,20.702368344220048,216.33798278031077,-63.463559020137566,276.53836478409033,-42.76119067591756,14.523044294277696,9.194293962046247,0.0,0.0,83.65831915380897,-46.54680820897629,70.20027194076548,-18.559033792379935,62.47939168573631,1.6422829812186563,60.20038200377951,20.702368344220048,10,1.1653099819677165e-15,766.344656917005,1.4383649773379327e-15,766.344656917005,2.220446049250313e-13,0.0,0.08226087588796038,1.2668174886745864,0.08226087588796038
0.009298530323012415,291.2880081149064,-32.257441860250125,276.0875630830577,-41.842233442568414,252.21851724750437,-26.130257565581502,23.86904583555335,-15.711975876986912,61.19123617057194,20.91919681990163,214.8963269124858,-62.76143026247007,276.0875630830577,-41.842233442568414,15.200445031848673,9.584791582318292,0.0,0.0,82.78065316930876,-46.056909032057604,69.54896352522951,-18.383329185610947,62.5667102179475,1.6788079551984936,61.19123617057194,20.91919681990163,10,1.1773340373410936e-15,768.1457640358807,1.238298495309522e-15,768.1457640358807,2.220446049250313e-13,0.0,0.07814783209356224,1.2627044448801885,0.07814783209356224
0.010013801886321063,292.30536521704494,-31.372474203951203,276.414585211446,-41.352489730950964,253.88459207129216,-26.476394251366912,22.529993140153863,-14.876095479584052,62.057687473993894,21.074101327112736,214.35689773745207,-62.42659105806368,276.414585211446,-41.352489730950964,15.890780005598938,9.980015526999761,0.0,0.0,82.37688989918091,-45.831196631454596,69.24881344667347,-18.30293422873995,62.73119439159771,1.7075398021308388,62.057687473993894,21.074101327112736,10,9.721760161384068e-16,769.2773817293112,1.3101683572965455e-15,769.2773817293112,2.220446049250313e-13,0.0,0.07403478829916432,1.2585914010857904,0.07403478829916432
0.010729073449629709,293.4906909030456,-30.66186669485777,276.89681255011004,-41.041630449560955,255.65115647915678,-26.9705399094849,21.24565607095326,-14.071090540076057,62.81522793079771,21.17244013766463,214.08158461931234,-62.214070587225564,276.89681255011004,-41.041630449560955,16.59387835293558,10.379763754703182,0.0,0.0,82.13661158717096,-45.697374856964856,69.04586426668172,-18.24959841992746,62.89910876545967,1.7329026896667372,62.81522793079771,21.17244013766463,10,1.3052966622013352e-15,769.5188001891977,1.5268023829853016e-15,769.5188001891977,2.220446049250313e-13,0.0,0.06992174450476618,1.2544783572913925,0.06992174450476618
0.011444345012938357,290.39433628742586,-32.49605534874249,273.0847665450782,-43.27989170286352,252.83260689205235,-29.82574720255613,20.252159653025842,-13.454144500307393,58.623634184131554,19.888560275136733,214.46113236094666,-63.16845197800025,273.0847665450782,-43.27989170286352,17.30956974234765,10.783836354121032,0.0,0.0,83.06689179514646,-46.21492494338584,69.88453629911933,-18.4719050280526,61.509704266680885,1.518377993438186,58.623634184131554,19.888560275136733,10,9.513041052228532e-16,708.7186073332313,1.7933419277783674e-15,708.7186073332313,1.1102230246251565e-13,0.0,0.06580870071036804,1.2503653134969945,0.06580870071036804
0.012159616576247005,290.6488462923018,-31.208319006029264,272.6111618692419,-42.400354569360815,253.7984268433037,-29.864323420226555,18.812735025938224,-12.53603114913426,59.59951322576232,20.092501753566424,213.01164864347956,-62.49285632292718,272.6111618692419,-42.400354569360815,18.03768442305991,11.19203556333155,0.0,0.0,82.21749324141865,-45.74057958693211,69.24963413432371,-18.30125993503245,61.5445212677372,1.548983199037373,59.59951322576232,20.092501753566424,10,1.1658219745181733e-15,710.1271411033232,2.489181415329032e-15,710.1271411033232,2.220446049250313e-13,0.0,0.06169565691597012,1.2462522697025964,0.06169565691597012
0.012874888139555651,291.73399657497765,-30.327912902361163,272.9559433007738,-41.93207869035308,255.45588397299335,-30.235239935836404,17.500059327780463,-11.696838754516676,60.49205899329901,20.25190296897034,212.4638843074748,-62.18398165932342,272.9559433007738,-41.93207869035308,18.778053274203867,11.604165787991915,0.0,0.0,81.84303797647209,-45.53127570154704,68.9631949750489,-18.22516528845756,61.65765135595382,1.5724593306811698,60.49205899329901,20.25190296897034,10,1.153402873444173e-15,711.0040759490948,1.4478639220452843e-15,711.0040759490948,2.220446049250313e-13,0.0,0.0575826131215722,1.2421392259081985,0.0575826131215722
0.013590159702864299,293.02975559030654,-29.602564639616258,273.4992477368076,-41.62259825804148,257.26908169302374,-30.741562574405037,16.230166043783868,-10.88103568363644,61.313581769219454,20.37040611180693,212.1856659675881,-61.99300436984838,273.4992477368076,-41.62259825804148,19.530507853498904,12.02003361842522,0.0,0.0,81.62831867331586,-45.41175967924839,68.77273691869082,-18.175733493252675,61.78461037558144,1.594488802652691,61.313581769219454,20.37040611180693,10,1.220873139893315e-15,711.2215452972953,1.3972264380782276e-15,711.2215452972953,1.6653345369377348e-13,0.0,0.05346956932717428,1.2380261821138006,0.05346956932717428
0.014305431266172945,291.26467292006794,-31.27568927648506,270.96979247463474,-43.71513712209102,255.77834666077086,-33.49957597294204,15.19144581386388,-10.215561149148982,57.590015479663194,19.18331704205736,213.3797769949715,-62.89845416414836,270.96979247463474,-43.71513712209102,20.29488044543322,12.43944784560596,0.0,0.0,82.63077386759518,-45.97046797071703,69.64090732299239,-18.405868086115166,61.10809580438393,1.4778818926838397,57.590015479663194,19.18331704205736,10,1.2692664094952271e-15,655.4540530891549,1.1640566801796797e-15,655.4540530891549,2.220446049250313e-13,0.0,0.04935652553277614,1.2339131383194024,0.04935652553277614
0.015020702829481593,291.6459338601953,-29.99410222884655,270.57492975125837,-42.85632170489714,256.7738185035128,-33.54761355875155,13.801111247745553,-9.308708146145591,58.5519765484796,19.377739928723557,212.0229532027788,-62.23406163362074,270.57492975125837,-42.85632170489714,21.071004108936947,12.86221947605059,0.0,0.0,81.80705544227177,-45.51036022261078,69.02243306316625,-18.239839293278855,61.193464697340765,1.5161378822689002,58.5519765484796,19.377739928723557,10,1.3204544427790591e-15,656.7663004808086,1.642693706309423e-15,656.7663004808086,1.1102230246251565e-13,0.0,0.04524348173837822,1.2298000945250045,0.04524348173837822
0.01573597439279024,292.8929073198368,-29.10692118477317,271.0341945952956,-42.39508293039384,258.52571852047083,-33.93276273131491,12.508476074824785,-8.462320199078931,59.45778326171937,19.538845529849667,211.57641133357623,-61.93392846024349,271.0341945952956,-42.39508293039384,21.85871272454121,13.288161745620668,0.0,0.0,81.45776920829252,-45.31522459765055,68.75179968142918,-18.167840168798715,61.36684244385455,1.5491363062057601,59.45778326171937,19.538845529849667,10,9.322229370093325e-16,657.6832128137747,1.292314242476881e-15,657.6832128137747,1.1102230246251565e-13,0.0,0.0411304379439803,1.2256870507306064,0.0411304379439803
0.016451245956098887,294.3846759994188,-28.361616423408854,271.7268349584064,-42.07870655565242,260.47978998573046,-34.446844075808116,11.247044972675951,-7.631862479844301,60.31445001410925,19.668553344379717,211.41238494429717,-61.747259900032134,271.7268349584064,-42.07870655565242,22.657841041012368,13.717090132243563,0.0,0.0,81.26480626324084,-45.20795759954665,68.57805389365392,-18.122411017718086,61.56952478740243,1.5831087172325695,60.31445001410925,19.668553344379717,10,9.414558663264202e-16,658.0898029536753,1.4945516263637558e-15,658.0898029536753,2.220446049250313e-13,0.0,0.03701739414958216,1.2215740069362084,0.03701739414958216
0.017166517519407537,293.0634123330666,-30.00908578812287,269.59518761160984,-44.15790815568229,259.4494088976847,-37.252616619003646,10.145778713925154,-6.9052915366786465,56.599625130606356,18.48115089609599,212.9955624810035,-62.639059051778275,269.59518761160984,-44.15790815568229,23.468224721456746,14.148822367559422,0.0,0.0,82.31351232356634,-45.79321874673807,69.46547891606097,-18.35749214032022,61.2165712413762,1.5116518352799915,56.599625130606356,18.48115089609599,10,1.2656665388888497e-15,606.4473827370149,1.2770522338943125e-15,606.4473827370149,1.249000902703301e-13,0.0,0.03290435035518402,1.2174609631418103,0.03290435035518402
0.017881789082716183,293.57008343356335,-28.735747188531388,269.2803830446764,-43.318925636032304,260.4802816523687,-37.31153850201241,8.800101392307681,-6.007387134019893,57.523780605365886,18.662389212153812,211.75660243931048,-61.981314848186116,269.2803830446764,-43.318925636032304,24.289700388886985,14.583178447500917,0.0,0.0,81.51252178047886,-45.345802857462104,68.86519484210136,-18.195984749026,61.37888581673024,1.560472758302005,57.523780605365886,18.662389212153812,10,1.4079931290678865e-15,607.7477127614378,1.930353692128436e-15,607.7477127614378,2.220446049250313e-13,0.0,0.0287913065607861,1.2133479193474124,0.0287913065607861
0.01859706064602483,294.96758891700586,-27.847243414353386,269.8454832457617,-42.86722405616729,262.3233183144125,-37.71684117415319,7.522164931349209,-5.1503828820140996,58.409642064277335,18.817711237816944,211.4358411814844,-61.68493529398424,269.8454832457617,-42.86722405616729,25.122105671244107,15.019980641813902,0.0,0.0,81.18457327069245,-45.16273179131298,68.61021650290812,-18.127758142978575,61.641051407883815,1.6055546403073322,58.409642064277335,18.817711237816944,10,1.1641593476180904e-15,608.7734742734718,1.2974446926648638e-15,608.7734742734718,1.1102230246251565e-13,0.0,0.02467826276638818,1.2092348755530145,0.02467826276638818
0.019312332209333476,296.63143629912673,-27.091950969025582,270.6661570532591,-42.551004471552176,264.401992187762,-38.24914816461322,6.264164865497094,-4.301856306938959,59.25928275249356,18.94762505459019,211.40687430076554,-61.49862952614238,270.6661570532591,-42.551004471552176,25.965279245867652,15.459053502526595,0.0,0.0,81.01038642806539,-45.06600743128279,68.45075675426486,-18.085645599098207,61.94573111843529,1.653023504238618,59.25928275249356,18.94762505459019,10,1.1813464139177286e-15,609.4067705435507,1.3942796309038476e-15,609.4067705435507,1.1102230246251565e-13,0.0,0.02056521897199004,1.2051218317586163,0.02056521897199004
0.020027603772642125,295.30668572510797,-28.77157185348709,268.4876248416998,-44.671795724862875,263.39886965875127,-41.16671756583642,5.088755182948546,-3.5050781590264535,55.41085945561181,17.729740701283774,213.07676538608797,-62.40153642614662,268.4876248416998,-44.671795724862875,26.819060883408152,15.900223871375788,0.0,0.0,82.08914188178547,-45.66847999231449,69.34474729930322,-18.323117048892264,61.642876204999276,1.590060615060139,55.41085945561181,17.729740701283774,10,1.304642127319373e-15,561.6687109844028,1.6888778046056265e-15,561.6687109844028,2.220446049250313e-13,0.0,0.01645217517759212,1.2010087879642184,0.01645217517759212
0.02074287533595077,295.90272845289405,-27.512614241809526,268.2194369617182,-43.855935128008184,264.43542715605196,-41.24179417738122,3.784009805666244,-2.614140950626961,56.28066732542272,17.89512784241824,211.9387696362955,-61.75106297042643,268.2194369617182,-43.855935128008184,27.68329149117584,16.343320886198658,0.0,0.0,81.30981533719091,-45.232986873737985,68.75859439678698,-18.164997241798197,61.87035990231762,1.6469211451097436,56.28066732542272,17.89512784241824,10,1.4271208664023813e-15,562.9874452125741,7.027743010923647e-16,562.9874452125741,2.220446049250313e-13,0.0,0.012339131383194202,1.1968957441698205,0.012339131383194202
0.021458146899259418,297.4076266211451,-26.630777457709826,268.8498134652262,-43.41895344400848,266.33347491007095,-41.67540588076827,2.5163385551552437,-1.743547563240213,57.12431467307627,18.039829419404036,211.7254987921499,-61.45878286341251,268.8498134652262,-43.41895344400848,28.557813155918907,16.788175986298654,0.0,0.0,81.00171603607586,-45.060907601480565,68.5145343534736,-18.099287048597304,62.20924840260042,1.701411786665382,57.12431467307627,18.039829419404036,10,1.0856924881079716e-15,564.1423396130438,1.1778347308554411e-15,564.1423396130438,1.1102230246251565e-13,0.0,0.00822608758879606,1.1927827003754223,0.00822608758879606
0.022173418462568067,299.1920060850445,-25.876184977627204,269.74953689901906,-43.11080789442141,268.4919498639731,-42.23685480943911,1.2575870350459581,-0.8739530849823041,57.9395691516484,18.163052005757855,211.8099677473707,-61.2738599001793,269.74953689901906,-43.11080789442141,29.44246918602545,17.23462291679421,0.0,0.0,80.84463918055769,-44.97363620159193,68.3649174586273,-18.0594486163656,62.600411108185696,1.7592249177782193,57.9395691516484,18.163052005757855,10,1.1732257379342639e-15,565.0164825742436,1.627718999487265e-15,565.0164825742436,1.1102230246251565e-13,0.0,0.004113043794398141,1.1886696565810244,0.004113043794398141
0.022888690025876714,289.1794573647934,-32.991811623465786,280.3194632726642,-38.92043108806337,280.3194632726642,-38.92043108806337,0.0,0.0,66.46141619955942,23.213567532322422,213.85804707310479,-62.133998620385796,280.3194632726642,-38.92043108806337,8.859994092129194,5.928619464597582,0.0,0.0,81.94312635065177,-45.58726681862067,69.25845497648513,-18.297962610067465,62.65646574596789,1.7512308083023314,66.46141619955942,23.213567532322422,11,1.1477942852486595e-15,872.856631266046,1.5000501399662746e-15,872.856631266046,1.6653345369377348e-13,3.469446951953614e-18,0.0,1.3161740142073626,0.0
0.02360396158918536,289.821296198226,-31.465792132828916,280.4308967691525,-37.72555735602245,243.15758500883138,-14.092499651071847,37.27331176032115,-23.633057704950602,67.81223125874807,23.575579281692,212.61866551040444,-61.301136637714464,280.4308967691525,-37.72555735602245,9.39039942907343,6.259765223193532,0.0,0.0,80.91168451981615,-44.984729501771554,68.68337786768356,-18.142697981544558,63.02360312290472,1.8262908456016618,67.81223125874807,23.575579281692,10,1.3636856024021358e-15,877.697148102902,1.6090312290944013e-15,877.697148102902,2.220446049250313e-13,0.0,0.12750435762633816,1.3120609704129647,0.12750435762633816
0.02431923315249401,291.6522340519958,-30.530222840663136,281.71806213601604,-37.12733648985326,245.716578676896,-14.228379179049426,36.00148345912004,-22.898957310803837,69.0932186411536,23.88543674803283,212.62484349486246,-61.01277323788612,281.71806213601604,-37.12733648985326,9.934171915979723,6.597113649190129,0.0,0.0,80.6432471645197,-44.836596234339446,68.44750806477008,-18.079162744115038,63.53408826557266,1.9029857405683757,69.0932186411536,23.88543674803283,10,1.0169601770291574e-15,883.5082746947778,1.3288657762935297e-15,883.5082746947778,2.220446049250313e-13,0.0,0.12339131383194024,1.3079479266185665,0.12339131383194024
0.025034504715802656,293.70399151261756,-29.76563363970701,283.21285305605056,-36.706084146832154,248.41229867655784,-14.501007398047989,34.80055437949272,-22.205076748784165,70.25756599950483,24.118435328183004,212.9552870565457,-60.82451947501514,283.21285305605056,-36.706084146832154,10.491138456566988,6.940450507125145,0.0,0.0,80.52071689346388,-44.77019834242324,68.30495961471289,-18.041280400510665,64.12961054836892,1.9869592679187917,70.25756599950483,24.118435328183004,10,1.0314102816476824e-15,890.3350208163542,1.1755829515068047e-15,890.3350208163542,2.220446049250313e-13,0.0,0.11927827003754232,1.3038348828241686,0.11927827003754232
0.025749776279111302,291.11866334016025,-31.744421423578267,280.0575366534504,-39.03398528222456,245.93393038053227,-17.19210225219365,34.12360627291815,-21.841883030030914,65.75681996246645,22.766707784626824,214.30071669098396,-61.800693066851395,280.0575366534504,-39.03398528222456,11.061126686709839,7.289563858646296,0.0,0.0,81.63544513704197,-45.39295628447434,69.19676543129373,-18.280650194532612,63.46850612264826,1.8729134121555617,65.75681996246645,22.766707784626824,10,1.1586278629365766e-15,810.6219116833074,1.8873192376304877e-15,810.6219116833074,2.220446049250313e-13,0.0,0.1151652262431444,1.2997218390297705,0.1151652262431444
0.02646504784241995,292.0747937555684,-30.440196354792448,280.43082873384844,-38.084440434578,247.77396432976843,-17.11574147441263,32.65686440408001,-20.96869896016537,66.98719234117007,23.08353355435608,213.44363639267834,-61.167973988934065,280.43082873384844,-38.084440434578,11.643965021719957,7.644244079785551,0.0,0.0,80.91774432292124,-44.993817803459905,68.63032247754774,-18.127954508720045,63.89556959220936,1.9537983232458842,66.98719234117007,23.08353355435608,10,1.1716107493618916e-15,816.4287633471282,1.0930563321242126e-15,816.4287633471282,2.220446049250313e-13,0.0,0.11105218244874626,1.2956087952353725,0.11105218244874626
0.027180319405728598,293.85238254577337,-29.55827596870502,281.6128998427041,-37.56255984580508,250.22108857285414,-17.342932660250597,31.391811269849967,-20.219627185554486,68.07777152094,23.318298905471444,213.53512832176403,-60.88085875127646,281.6128998427041,-37.56255984580508,12.239482703069266,8.004283877100066,0.0,0.0,80.65996394189455,-44.851431673794636,68.40031945876399,-18.066341052423873,64.47484492110554,2.036913974942003,68.07777152094,23.318298905471444,10,1.0754868096479632e-15,823.2482404857153,1.336332233603249e-15,823.2482404857153,2.220446049250313e-13,0.0,0.10693913865434834,1.2914957514409746,0.10693913865434834
0.027895590969037244,295.6915024510876,-28.892994593813135,282.84399260653885,-37.26247289650101,252.65588191574219,-17.757301480005793,30.188110690796663,-19.505171416495216,68.9241089588546,23.43488821950291,213.9198836476843,-60.69736111600396,282.84399260653885,-37.26247289650101,12.847509844548766,8.369478302687876,0.0,0.0,80.54649415140818,-44.789899156987374,68.26258293615078,-18.030176624211563,65.11080656012534,2.1227146651949624,68.9241089588546,23.43488821950291,10,1.121835966450955e-15,830.0716473642392,1.0824996892840904e-15,830.0716473642392,4.440892098500626e-13,0.0,0.1028260948599502,1.2873827076465765,0.1028260948599502
0.02861086253234589,288.52432380241885,-31.803245543055937,275.0564463245622,-40.542870311142366,245.61972764856995,-21.463746597821142,29.436718675992267,-19.079123713321223,61.618703685702386,21.390416551927274,213.43774263885987,-61.933286863069654,275.0564463245622,-40.542870311142366,13.467877477856655,8.739624768086431,0.0,0.0,81.66891177891993,-45.41694562377047,69.15403962347838,-18.270353437221594,62.61479123646154,1.754012197922421,61.618703685702386,21.390416551927274,10,1.3612472195849739e-15,753.258282514459,1.8944987014356607e-15,753.258282514459,1.1102230246251565e-13,0.0,0.09871305106555206,1.2832696638521786,0.09871305106555206
0.02932613409565454,289.2355915381276,-30.56718422557877,275.13517394051837,-39.68170728264087,247.13387420626853,-21.476482342636018,28.00129973424984,-18.205224940004854,62.68428667635132,21.648341852802808,212.450887264167,-61.33004913544367,275.13517394051837,-39.68170728264087,14.100417597609251,9.114523057062101,0.0,0.0,80.96217973717272,-45.02360475732792,68.59439693762786,-18.11997277153715,62.89431058936641,1.8135283934214002,62.68428667635132,21.648341852802808,10,1.014375387345557e-15,756.7724643304006,1.6022653439088815e-15,756.7724643304006,2.220446049250313e-13,0.0,0.09460000727115414,1.2791566200577806,0.09460000727115414
0.030041405658963186,290.6870243389704,-29.76032425291232,275.94206113320087,-39.2542995902121,249.20173121361168,-21.81491186529894,26.740329919589186,-17.43938772491316,63.578400841097306,21.822898363868,212.36366029210356,-61.07719795408009,275.94206113320087,-39.2542995902121,14.74496320576954,9.493975337299782,0.0,0.0,80.71371277998067,-44.88622510771004,68.3687643609605,-18.06007686156262,63.281183151162395,1.869104015192562,63.578400841097306,21.822898363868,10,9.941823541192138e-16,760.3336373530915,1.1571310823794511e-15,760.3336373530915,2.220446049250313e-13,0.0,0.09048696347675622,1.2750435762633825,0.09048696347675622
0.030756677222271833,292.24032521107137,-29.14416227075303,276.8389768555846,-39.021948441753864,251.30766735444635,-22.319451296363752,25.531309501138225,-16.70249714539011,64.29181830932215,21.9076432482713,212.54715854626238,-60.92959169002516,276.8389768555846,-39.021948441753864,15.40134835548677,9.877786171000833,0.0,0.0,80.60820527752145,-44.82895560093512,68.23460294786358,-18.025457287250184,63.70435032087738,1.9248211981601457,64.29181830932215,21.9076432482713,10,1.1427574681959863e-15,763.2857640407485,1.283114526114113e-15,763.2857640407485,2.220446049250313e-13,0.0,0.0863739196823583,1.2709305324689846,0.0863739196823583
0.03147194878558048,287.13169627447206,-31.528794551467975,271.0622880801293,-41.79455707586726,246.36104989662613,-25.58508706160984,24.701238183503165,-16.20947001425742,58.85979627681797,20.349053762100773,212.20249180331135,-62.143610837968026,271.0622880801293,-41.79455707586726,16.069408194342778,10.265762524399285,0.0,0.0,81.73505341893049,-45.45845225382199,69.12817285301685,-18.266231153383046,61.339265531363985,1.5810725692370298,58.85979627681797,20.349053762100773,10,9.277636425244977e-16,698.6934489595442,1.1002772014600036e-15,698.6934489595442,2.220446049250313e-13,0.0,0.08226087588796016,1.2668174886745864,0.08226087588796016
0.03218722034888913,287.6105219628712,-30.343039585505263,270.861542955872,-41.00075336171045,247.56638177961096,-25.666871941732637,23.29516117626102,-15.333881419977814,59.83127571377017,20.573773690247158,211.03026724210184,-61.57452705195763,270.861542955872,-41.00075336171045,16.748979006999186,10.657713776205188,0.0,0.0,81.03814558516211,-45.07030497975304,68.57447682754112,-18.11796289168386,61.41764482939859,1.6137408194792968,59.83127571377017,20.573773690247158,10,9.298664335355767e-16,701.0291842146928,1.2862364749130938e-15,701.0291842146928,2.220446049250313e-13,0.0,0.07814783209356224,1.2627044448801885,0.07814783209356224
0.032902491912197775,288.8353529188023,-29.570834847502944,271.395454661561,-40.62428657248819,249.35942587300306,-26.074599381532067,22.036028788557957,-14.54968719095612,60.67116147596064,20.733602608400837,210.72429318560035,-61.35788918088903,271.395454661561,-40.62428657248819,17.439898257241257,11.053451724985246,0.0,0.0,80.79791745162957,-44.93735926528482,68.3527835518984,-18.059640159968872,61.573592182072396,1.6391102443646588,60.67116147596064,20.733602608400837,10,1.0687677686286225e-15,703.1408240033225,1.0110030627323794e-15,703.1408240033225,1.1102230246251565e-13,0.0,0.07403478829916432,1.2585914010857904,0.07403478829916432
0.03361776347550642,290.17941816509205,-28.96982885787623,272.0374135356794,-40.42261945336617,251.2178961156105,-26.633957319310184,20.819517420068877,-13.788662134055983,61.38038803548877,20.82629456894192,210.6570255001906,-61.24891402230807,272.0374135356794,-40.42261945336617,18.142004629412668,11.452790595489938,0.0,0.0,80.69947745544674,-44.88388204907265,68.22208107648432,-18.026461133285814,61.735466968259544,1.661429160050389,61.38038803548877,20.82629456894192,10,1.0369667988055241e-15,704.6568890513289,1.7403612461395941e-15,704.6568890513289,2.220446049250313e-13,0.0,0.06992174450476618,1.2544783572913925,0.06992174450476618
0.034333035038815074,287.6021552337901,-30.892630133540084,268.74701716455127,-42.748177177478595,248.83956566830605,-29.523166934240805,19.907451496245216,-13.22501024323779,57.4035108654525,19.574382072869646,211.34350629909878,-62.32255925034826,268.74701716455127,-42.748177177478595,18.85513806923882,11.855547043938511,0.0,0.0,81.8280113799865,-45.51435471762488,69.11869492086689,-18.267372158441766,60.39679999824536,1.4591676257184218,57.4035108654525,19.574382072869646,10,1.1336597597548518e-15,648.2665866570504,1.0876938868618896e-15,648.2665866570504,2.220446049250313e-13,0.0,0.06580870071036804,1.2503653134969945,0.06580870071036804
0.03504830660212372,288.0985481423586,-29.709654554459078,268.5194083183262,-41.97119471672991,249.99025739452912,-29.624233350157652,18.52915092379709,-12.346961366572259,58.378707274272074,19.793434716602164,210.1407010440541,-61.764629433332075,268.5194083183262,-41.97119471672991,19.57913982403236,12.261540162270835,0.0,0.0,81.13988048580057,-45.13087665291981,68.57048586966701,-18.121021724304416,60.43033468858652,1.487268943892154,58.378707274272074,19.793434716602164,10,9.255387616113274e-16,650.1915039652949,1.641334033112125e-15,650.1915039652949,1.1102230246251565e-13,0.0,0.06169565691597012,1.2462522697025964,0.06169565691597012
0.035763578165432366,289.37737605932665,-28.922627508504483,269.0635235770482,-41.593218989882075,251.79358835033526,-30.050262918621314,17.26993522671296,-11.542956071260761,59.26190808276612,19.96413698235736,209.8016154942821,-61.55735597223945,269.0635235770482,-41.593218989882075,20.31385248227843,12.670591481377594,0.0,0.0,80.90689433380624,-45.00185676283725,68.35256101291628,-18.06411962815462,60.542160147559564,1.508620418752436,59.26190808276612,19.96413698235736,10,1.0747733738861176e-15,651.9176075367646,1.3929055288861815e-15,651.9176075367646,2.220446049250313e-13,0.0,0.0575826131215722,1.2421392259081985,0.0575826131215722
0.03647884972874101,290.8220056531999,-28.28872026006944,269.7628856406039,-41.37124523338906,253.71885502010198,-30.61504731681879,16.0440306205019,-10.756197916570272,60.05327902965094,20.084090373252607,209.70960661095296,-61.45533560664168,269.7628856406039,-41.37124523338906,21.05912001259599,13.082524973319623,0.0,0.0,80.81465434305022,-44.95173629431685,68.22540740892227,-18.032263577358616,60.66954485898048,1.5286642650337683,60.05327902965094,20.084090373252607,10,1.4245513047673028e-15,653.1949590149172,1.522363833598874e-15,653.1949590149172,2.220446049250313e-13,0.0,0.05346956932717406,1.2380261821138006,0.05346956932717406
0.03719412129204966,289.32662398523036,-30.050818668023524,267.5118361831591,-43.547985720570495,252.46465955703584,-33.42946926090849,15.047176626123274,-10.118516459662004,56.423288619977335,18.886893583870453,211.0885475631818,-62.43487930444097,267.5118361831591,-43.547985720570495,21.81478780207126,13.497167052546969,0.0,0.0,81.94240716939008,-45.581897926103466,69.1238616494691,-18.272773249891788,60.02227874432262,1.4197918715543025,56.423288619977335,18.886893583870453,10,1.31644487380861e-15,601.6727720221695,1.0934586609467929e-15,601.6727720221695,2.220446049250313e-13,0.0,0.04935652553277614,1.2339131383194024,0.04935652553277614
0.037909392855358305,289.9276565675176,-28.860568756831103,267.34695387355737,-42.77491533296015,253.65154343195624,-33.53752108019245,13.695410441601126,-9.2373942527677,57.3957473123134,19.100495667944394,209.951206561244,-61.87541100090456,267.34695387355737,-42.77491533296015,22.580702693960255,13.914346576129045,0.0,0.0,81.26202541172113,-45.202591057944744,68.5829921323451,-18.128413700707977,60.10618901717778,1.455593757748133,57.3957473123134,19.100495667944394,10,1.2863433831308796e-15,603.4476406093984,1.853882918242463e-15,603.4476406093984,2.220446049250313e-13,0.0,0.04524348173837822,1.2298000945250045,0.04524348173837822
0.03862466441866695,291.34728181758584,-28.05186037895321,267.9905687928275,-42.38575522196095,255.55613598216092,-33.973538289934,12.434432810666578,-8.41221693202695,58.30602729428638,19.27822543871821,209.68454149854114,-61.66398066067919,267.9905687928275,-42.38575522196095,23.356713024758317,14.333894843007737,0.0,0.0,81.03528989252088,-45.077004843982905,68.37268282575374,-18.073261320664635,60.2765687802665,1.4862855039683822,58.30602729428638,19.27822543871821,10,9.296278909983483e-16,605.1112485637849,1.880611404979871e-15,605.1112485637849,1.1102230246251565e-13,0.0,0.04113043794398008,1.2256870507306066,0.04113043794398008
0.039339935981975604,292.97202117637397,-27.383043832716417,268.8293525157413,-42.138689425000564,257.6319207985556,-34.540498603647706,11.19743171718568,-7.598190821352858,59.149954598873464,19.41657660067596,209.67939791686783,-61.55526602567652,268.8293525157413,-42.138689425000564,24.142668660632697,14.755645592284145,0.0,0.0,80.94835753511734,-45.02980282902068,68.25475318126433,-18.043297852185486,60.47628720048616,1.5178346555296471,59.149954598873464,19.41657660067596,10,1.1189797170393886e-15,606.4727352143434,1.3655268195714055e-15,606.4727352143434,2.220446049250313e-13,0.0,0.03701739414958216,1.2215740069362084,0.03701739414958216
0.04005520754528425,291.7593302425481,-29.120902257546263,266.82090920933115,-44.3003372580979,256.7076168107359,-37.41715863634133,10.113292398595263,-6.883178621756571,55.45018748096603,18.189797942371825,211.37072172836508,-62.49013520046972,266.82090920933115,-44.3003372580979,24.938421033216958,15.179435000551633,0.0,0.0,82.07322621704674,-45.65855688561069,69.15385500368761,-18.283232353863287,60.14364050763076,1.4516540390042323,55.45018748096603,18.189797942371825,10,1.0412051717969089e-15,558.8057708629022,1.3190136633446468e-15,558.8057708629022,8.326672684688674e-14,0.0,0.03290435035518402,1.2174609631418103,0.03290435035518402
0.0407704791085929,292.4619908688986,-27.928787048133074,266.71816769413437,-43.533888726419576,257.93108649131403,-37.53539066610284,8.787081202820332,-5.998498060316734,56.393270313884244,18.392594497360918,210.32489738025012,-61.926483223780494,266.71816769413437,-43.533888726419576,25.743823174764273,15.6051016782865,0.0,0.0,81.39960900762878,-45.282947657826924,68.6235227806034,-18.141201478716976,60.30176559201795,1.497665912763388,56.393270313884244,18.392594497360918,10,1.2421233129824967e-15,560.5128462934339,1.3570452462325414e-15,560.5128462934339,2.220446049250313e-13,0.0,0.0287913065607861,1.2133479193474124,0.0287913065607861
0.04148575067190154,294.01273692661226,-27.10677460308813,267.4540071739541,-43.13926126839681,259.9311527227927,-37.988406066348574,7.522854451161379,-5.150855202048234,57.29678175609227,18.569111051929433,210.15722541786187,-61.708372320326276,267.4540071739541,-43.13926126839681,26.558729752658156,16.032486665308678,0.0,0.0,81.17828440113615,-45.16036989657164,68.42222047724503,-18.08792687916116,60.55672053948067,1.5399244554065135,57.29678175609227,18.569111051929433,10,9.02629599514044e-16,562.2034567957156,1.3242822377044184e-15,562.2034567957156,1.1102230246251565e-13,0.0,0.02467826276638796,1.2092348755530145,0.02467826276638796
0.04220102223521019,295.79709737891875,-26.41494212335574,268.4141002756401,-42.8763755486803,262.1408863657434,-38.56830443671956,6.273213909896697,-4.308071111960743,58.15222532610944,18.714815745615354,210.26187494953066,-61.59119129429561,268.4141002756401,-42.8763755486803,27.382997103278605,16.46143342532456,0.0,0.0,81.09638027883214,-45.11590020122622,68.31261155682641,-18.059597000631804,60.8528831138721,1.5843059075623955,58.15222532610944,18.714815745615354,10,9.870196055441847e-16,563.7301621014295,9.641557874939743e-16,563.7301621014295,2.220446049250313e-13,0.0,0.02056521897199004,1.2051218317586163,0.02056521897199004
0.042916293798518836,294.48443892412786,-28.184374544155688,266.2679556589062,-45.07616238371966,261.168488097704,-41.56370530251806,5.099467561202175,-3.512457081201603,54.26852899061957,17.438593101779624,211.99942666828665,-62.51475548549928,266.2679556589062,-45.07616238371966,28.21648326522166,16.891787839563975,0.0,0.0,82.21796097125211,-45.74288815956619,69.20585343392773,-18.298182703953255,60.57561226310679,1.5263153780201648,54.26852899061957,17.438593101779624,10,9.737426240257044e-16,519.6281104348818,8.440250269042585e-16,519.6281104348818,1.1102230246251565e-13,0.0,0.01645217517759212,1.2010087879642184,0.01645217517759212
0.04363156536182749,295.2546698225306,-26.99914984556926,266.1956218106574,-44.322548045094294,262.397565666899,-41.69870313039769,3.7980561437584015,-2.6238449146966047,55.16282825415796,17.626285011533497,211.0327935564995,-61.94883305662779,266.1956218106574,-44.322548045094294,29.059048011873177,17.323398199525034,0.0,0.0,81.55188667456183,-45.37123508627762,68.68345794852246,-18.1577543874971,60.797448933415225,1.5801564171469238,55.16282825415796,17.626285011533497,10,1.0355089335023718e-15,521.2987968364454,1.2621175441131542e-15,521.2987968364454,1.1102230246251565e-13,0.0,0.01233913138319398,1.1968957441698205,0.01233913138319398
0.044346836925136135,296.89705318908364,-26.174574967159828,266.986500305751,-43.93069016599753,264.4572459932961,-42.17819330879249,2.5292543124548956,-1.7524968572050454,56.03514852353757,17.795340599718223,210.9513517822134,-61.72603076571572,266.986500305751,-43.93069016599753,29.91055288333261,17.756115198837705,0.0,0.0,81.33701760314005,-45.25203005629456,68.48783350859387,-18.105493962995197,61.1265006704795,1.631493253574007,56.03514852353757,17.795340599718223,10,9.19675821257276e-16,523.042945426284,1.03089679710493e-15,523.042945426284,2.220446049250313e-13,0.0,0.00822608758879606,1.1927827003754223,0.00822608758879606
0.04506210848844478,298.79452338729004,-25.472459904954025,268.0236621696012,-43.66225182921448,266.7580913271822,-42.78275042879824,1.265570842418981,-0.8795014004162454,56.87388954880754,17.940562585524468,211.14977262079367,-61.602814414738944,268.0236621696012,-43.66225182921448,30.770861217688807,18.189791924260458,0.0,0.0,81.26078961821443,-45.210511218497096,68.383348333672,-18.078093461502444,61.50563466890726,1.6857902652605716,56.87388954880754,17.940562585524468,10,1.1558922865772253e-15,524.7564577533352,1.830177076960216e-15,524.7564577533352,2.220446049250313e-13,0.0,0.004113043794398141,1.1886696565810244,0.004113043794398141
0.04577738005175343,289.0338829675182,-32.489525370910336,278.8545724809779,-39.358752035284795,278.8545724809779,-39.358752035284795,0.0,0.0,65.62841140253981,23.111696783928146,213.22616107843805,-62.470448819212905,278.8545724809779,-39.358752035284795,10.1793104865403,6.869226664374457,0.0,0.0,82.37947911702412,-45.83578198897352,69.26805999341964,-18.315215025546532,61.578621967994295,1.6805481953071393,65.62841140253981,23.111696783928146,11,1.0060347697777097e-15,800.4284038110507,1.369286553512322e-15,800.4284038110507,2.220446049250313e-13,0.0,0.0,1.3161740142073626,0.0
0.046492651615062074,289.918574087904,-30.982581237145105,279.1992073737069,-38.189100054889366,241.64558695644467,-14.37779223425801,37.55362041726221,-23.811307820631356,67.06307916471002,23.524598673266823,212.1361282089969,-61.7136987281562,279.1992073737069,-38.189100054889366,10.71936671419712,7.20651881774426,0.0,0.0,81.44797887035828,-45.28946853130262,68.751730933758,-18.176168511731667,61.93641840488062,1.7519383148780747,67.06307916471002,23.524598673266823,10,1.372823178308006e-15,804.35389747133,2.140717766356491e-15,804.35389747133,2.220446049250313e-13,0.0,0.12750435762633816,1.3120609704129647,0.12750435762633816
0.04720792317837072,291.97611892371907,-30.04035526601362,280.7049703418553,-37.5892922081847,244.3913744263499,-14.491289763767071,36.3135959155054,-23.09800244441763,68.45329527349982,23.897938569748895,212.2516750683555,-61.487230777933604,280.7049703418553,-37.5892922081847,11.271148581863756,7.54893694217108,0.0,0.0,81.26023535477073,-45.18694096561008,68.56017247637783,-18.12486688793163,62.431267237206924,1.8245770756081043,68.45329527349982,23.897938569748895,10,1.3281864989585052e-15,808.9772613966932,1.3379579682659992e-15,808.9772613966932,2.220446049250313e-13,0.0,0.12339131383194024,1.3079479266185665,0.12339131383194024
0.047923194741679366,294.25720220172917,-29.252651079268688,282.4227078411371,-37.14893615579874,247.28595340003284,-14.728832632622641,35.136754441104245,-22.420103523176095,69.74854312196898,24.205835194262576,212.67416471916812,-61.35477135006133,282.4227078411371,-37.14893615579874,11.834494360592082,7.896285076530047,0.0,0.0,81.20817569090106,-45.16029629799721,68.4590852598278,-18.098341094480975,63.00690376843926,1.9038660424168725,69.74854312196898,24.205835194262576,10,1.1079754109579043e-15,814.3622755887408,1.3353457580173964e-15,814.3622755887408,2.220446049250313e-13,0.0,0.11927827003754232,1.3038348828241686,0.11927827003754232
0.04863846630498802,291.41016907909005,-31.43130398981507,279.000925327556,-39.67967384323998,244.54846111676193,-17.62682979817677,34.45246421079406,-22.05284404506321,64.9222608383552,22.641793144400815,214.0786644892008,-62.32146698764083,279.000925327556,-39.67967384323998,12.409243751534044,8.24836985342491,0.0,0.0,82.32784262040809,-45.78600070595577,69.33758289618855,-18.33480090835149,62.41323897260417,1.7993346266664219,64.9222608383552,22.641793144400815,10,1.173226762595145e-15,744.5968099583586,1.935254247324693e-15,744.5968099583586,2.220446049250313e-13,0.0,0.11516522624314418,1.2997218390297705,0.11516522624314418
0.049353737868296665,292.6230726625658,-30.12968373825408,279.6278347400033,-38.734684239016644,246.6133206805358,-17.535893351590005,33.01451405946753,-21.19879088742664,66.26801652082065,23.023323946974934,213.35981821918267,-61.75800818599156,279.6278347400033,-38.734684239016644,12.99523792256249,8.605000500762564,0.0,0.0,81.70020763705831,-45.437551990330704,68.8260608264254,-18.197148467936877,62.83354975569896,1.876692272276017,66.26801652082065,23.023323946974934,10,1.355841443053508e-15,749.9154828642608,9.463544347279231e-16,749.9154828642608,1.1102230246251565e-13,0.0,0.11105218244874626,1.2956087952353725,0.11105218244874626
0.05006900943160531,294.7474347152239,-29.19645822685625,281.15511517098906,-38.16244706917627,249.3864034627357,-17.699626613012157,31.768711708253363,-20.46282045616411,67.57870196432118,23.360896475074725,213.5764132066679,-61.52334354425099,281.15511517098906,-38.16244706917627,13.592319544234844,8.965988842320014,0.0,0.0,81.51451443786618,-45.33590406315495,68.63738543566359,-18.14683690926423,63.42451333313814,1.9593974281681668,67.57870196432118,23.360896475074725,10,1.0797581917981612e-15,756.4616904480243,1.0779200637846584e-15,756.4616904480243,2.220446049250313e-13,0.0,0.10693913865434834,1.2914957514409746,0.10693913865434834
0.05078428099491396,296.9613255288971,-28.454994653772715,282.7609927038007,-37.786143951087894,252.18306803664538,-18.028703931903863,30.577924667155315,-19.75744001918403,68.6858739965726,23.60036333262925,214.0751187072281,-61.386507283717165,282.7609927038007,-37.786143951087894,14.200332825096378,9.331149297315177,0.0,0.0,81.46424893645573,-45.3100184481131,68.53853171870317,-18.121216195718706,64.0723380520692,2.0447273601146563,68.6858739965726,23.60036333262925,10,1.0144989065368768e-15,763.8477673050375,1.6604204828912699e-15,763.8477673050375,2.220446049250313e-13,0.0,0.1028260948599502,1.2873827076465765,0.1028260948599502
0.051499552558222604,289.37390715405974,-31.62169981470629,274.55478360773617,-41.32199869370163,244.7439015400931,-22.00000968895884,29.810882067643064,-19.32198900474279,60.90611595406175,21.28399985868127,213.6486676536744,-62.6059985523829,274.55478360773617,-41.32199869370163,14.819123546323594,9.70029887899534,0.0,0.0,82.58179716057384,-45.93443873310891,69.41532170405915,-18.357830798502278,61.651548789041414,1.6862709792283042,60.90611595406175,21.28399985868127,10,1.3967344967779813e-15,693.191280316727,1.4013533471709103e-15,693.191280316727,1.1102230246251565e-13,0.0,0.09871305106555206,1.2832696638521786,0.09871305106555206
0.05221482412153125,290.37969183657685,-30.36959048077694,274.93115274087154,-40.442847673032134,246.53959883564332,-21.983567900046893,28.39155390522822,-18.45927977298524,62.12646485490226,21.621264180441813,212.80468788596926,-62.064111853473904,274.93115274087154,-40.442847673032134,15.448539095705295,10.073257192255195,0.0,0.0,81.95612922333933,-45.586687971396,68.90793179767572,-18.22161616184004,61.940626864954226,1.7441922797621103,62.12646485490226,21.621264180441813,10,1.215048706474371e-15,696.8597673057224,8.405400206690665e-16,696.8597673057224,2.220446049250313e-13,0.0,0.09460000727115414,1.2791566200577806,0.09460000727115414
0.0529300956848399,292.14654339350585,-29.510087680638286,276.05811489254427,-39.959934110936416,248.91915173404422,-22.260264370828793,27.138963158500047,-17.699669740107623,63.230364066227686,21.900098776185622,212.8277508263166,-61.86003288712203,276.05811489254427,-39.959934110936416,16.088428500961598,10.44984643029813,0.0,0.0,81.77246084393524,-45.4859068051496,68.72173074148071,-18.172370061797196,62.33355924090064,1.798243979824754,63.230364066227686,21.900098776185622,10,1.1490227815989386e-15,701.0870875271538,1.9057097281320906e-15,701.0870875271538,1.1102230246251565e-13,0.0,0.09048696347675622,1.2750435762633825,0.09048696347675622
0.05364536724814855,294.04241939798095,-28.82187107735255,277.3037769355811,-39.65176244770612,251.37063240431308,-22.68611253706635,25.933144531268,-16.96564991063977,64.19128535782082,22.104291719077565,213.11249157776024,-61.756054166783656,277.3037769355811,-39.65176244770612,16.73864246239987,10.829891370353568,0.0,0.0,81.72403864537597,-45.460810229269796,68.62488840614206,-18.147742814752526,62.76356452624216,1.8524988772386806,64.19128535782082,22.104291719077565,10,1.1055964312429426e-15,705.4977244441837,8.768567052194804e-16,705.4977244441837,2.220446049250313e-13,0.0,0.08637391968235808,1.2709305324689846,0.08637391968235808
0.054360638811457196,288.44911116378313,-31.49154017168739,271.05007777887585,-42.704759540151,245.968216623018,-26.245282758684453,25.081861155857837,-16.45947678146655,58.207228302215114,20.24207218033171,212.84284947666072,-62.946831720482706,271.05007777887585,-42.704759540151,17.39903338490726,11.213219368463612,0.0,0.0,82.83985229252833,-46.08415269982864,69.50428783499734,-18.384886150396873,60.49870934913505,1.522207129742803,58.207228302215114,20.24207218033171,10,1.1341507932799233e-15,644.6888396487986,1.1396352026889967e-15,644.6888396487986,2.220446049250313e-13,0.0,0.08226087588796016,1.2668174886745864,0.08226087588796016
0.05507591037476584,289.19899198763636,-30.294821976352438,271.12953657835675,-41.89448232970474,247.44876045823327,-26.30656437239091,23.680776120123483,-15.587917957313834,59.31955666714894,20.539022834200736,211.80997991120785,-62.43350516390551,271.12953657835675,-41.89448232970474,18.069455409279623,11.599660353352307,0.0,0.0,82.21620557952185,-45.7371527461371,69.00106305139488,-18.250156586191103,60.59271128029109,1.5538041684227295,59.31955666714894,20.539022834200736,10,1.084795211425162e-15,647.3401406569459,9.722386112671771e-16,647.3401406569459,2.220446049250313e-13,0.0,0.07814783209356224,1.2627044448801885,0.07814783209356224
0.05579118193807449,290.7115202443565,-29.480555593197696,271.9617558014692,-41.4696024125889,249.5412176196233,-26.665851610763383,22.420538181845927,-14.803750801825515,60.347857958422,20.791439399662053,211.61389784304723,-62.26104181225095,271.9617558014692,-41.4696024125889,18.749764442887273,11.989046819391202,0.0,0.0,82.03464657848824,-45.63730509878013,68.81769206257066,-18.20205803346464,60.76155920198834,1.5783213199938118,60.347857958422,20.791439399662053,10,9.952176383747448e-16,650.1870524331542,1.815054958883622e-15,650.1870524331542,2.220446049250313e-13,0.0,0.0740347882991641,1.2585914010857904,0.0740347882991641
0.056506453501383135,292.36956853235006,-28.820721379533957,272.9297503426724,-41.20193519820867,251.73103514132237,-27.161972566215297,21.198715201350012,-14.039962631993376,61.2801905985491,20.989701676648274,211.64955974412328,-62.19163687485694,272.9297503426724,-41.20193519820867,19.4398181896777,12.381213818674716,0.0,0.0,81.98817748581271,-45.613079640588914,68.72343545599213,-18.178523658243282,60.93794680231844,1.5999664239752462,61.2801905985491,20.989701676648274,10,1.314768208468913e-15,652.9430305450575,1.2659935792652721e-15,652.9430305450575,2.220446049250313e-13,0.0,0.06992174450476618,1.2544783572913925,0.06992174450476618
0.05722172506469178,289.2913433431884,-31.01669243662422,269.15186716367293,-43.79269138884291,248.8901734856682,-30.332218220741368,20.26169367800472,-13.460473168101544,56.74853226102634,19.448563176195037,212.40333490264663,-63.24125456503796,269.15186716367293,-43.79269138884291,20.139476179515466,12.775998952218693,0.0,0.0,83.10220739043584,-46.23538533591197,69.60672491795191,-18.415943466828814,59.69440259425885,1.410074237702844,56.74853226102634,19.448563176195037,10,1.082724912349943e-15,600.0255621306846,1.464001675194184e-15,600.0255621306846,2.220446049250313e-13,0.0,0.06580870071036804,1.2503653134969945,0.06580870071036804
0.057936996628000434,290.0249121746083,-29.833205634259755,269.1763123777474,-43.00644799455634,250.29763967510522,-30.42647069103387,18.878672702642206,-12.579977303522469,57.84067380277025,19.728115354917037,211.33563857497717,-62.734563349473376,269.1763123777474,-43.00644799455634,20.848599796860896,13.173242360296582,0.0,0.0,82.4806339515861,-45.8892176972838,69.10772055884661,-18.28267402225623,59.747284064544445,1.437328370066659,57.84067380277025,19.728115354917037,10,9.160293243915312e-16,602.2735356694436,1.8965140914349023e-15,602.2735356694436,2.220446049250313e-13,0.0,0.06169565691597012,1.2462522697025964,0.06169565691597012
0.05865226819130908,291.55295216588905,-29.018763589528238,269.9858998571019,-42.59155030145442,252.37587952744826,-30.82119352129834,17.61002032965365,-11.770356780156078,58.88225185177988,19.976546604478784,211.10364800532204,-62.56809690593319,269.9858998571019,-42.59155030145442,21.567052308787137,13.572786711926181,0.0,0.0,82.30120558900228,-45.790359590795816,68.92743354265357,-18.235716840775865,59.875008873666175,1.4579795256384998,58.88225185177988,19.976546604478784,10,1.0553870083548654e-15,604.6584887020906,1.3854048416254644e-15,604.6584887020906,1.6653345369377348e-13,0.0,0.05758261312157198,1.2421392259081985,0.05758261312157198
0.059367539754617726,293.27233011544666,-28.3416082821839,270.9776312231086,-42.31608547570559,254.60634889988825,-31.340416139480908,16.371282323220328,-10.975669336224684,59.866155708962786,20.186920331848512,211.11147551414578,-62.5030058075541,270.9776312231086,-42.31608547570559,22.294698892338072,13.974477193521691,0.0,0.0,82.25669736295934,-45.76705399818924,68.83618072813432,-18.213280592789815,60.01859742305211,1.4773287834249444,59.866155708962786,20.186920331848512,10,1.0635963974658185e-15,606.9819489376699,1.1679260424733593e-15,606.9819489376699,8.326672684688674e-14,0.0,0.05346956932717406,1.2380261821138006,0.05346956932717406
0.06008281131792637,291.2726832124784,-30.35144404475485,268.24127655125056,-44.72960554147963,252.89438411763732,-34.409485520338876,15.346892433613249,-10.320120021140752,55.723183043003274,18.733513485786794,212.5180935082473,-63.46311902726643,268.24127655125056,-44.72960554147963,23.03140666122782,14.378161496724779,0.0,0.0,83.36839939518833,-46.388128989629266,69.7217059930058,-18.450400453550387,59.42798812005314,1.3754104159132368,55.723183043003274,18.733513485786794,10,9.536056542116879e-16,558.8046603453014,1.5410355069077813e-15,558.8046603453014,1.6653345369377348e-13,0.0,0.04935652553277614,1.2339131383194024,0.04935652553277614
0.06079808288123502,292.07089613853043,-29.171980340693345,268.2938514466474,-43.95567014612169,254.31195906056035,-34.525001028490664,13.981892386087054,-9.430669117631027,56.78870343497738,18.996225037603104,211.50514801167003,-62.95189518372479,268.2938514466474,-43.95567014612169,23.777044691882992,14.783689805428345,0.0,0.0,82.74884736941922,-46.04283971808082,69.22869702896743,-18.31872323422342,59.52760361328338,1.409667768579446,56.78870343497738,18.996225037603104,10,1.055059420870023e-15,560.8730316652243,1.7816497448655983e-15,560.8730316652243,2.220446049250313e-13,0.0,0.045243481738378,1.2298000945250045,0.045243481738378
0.061513354444543665,293.6958965406576,-28.3503429374968,269.16441249182714,-43.54125771950473,256.46030536304585,-34.94656355974192,12.704107128781288,-8.59469415976281,57.8289183025769,19.23815348469754,211.33549418925026,-62.77941120420229,269.16441249182714,-43.54125771950473,24.531484048830457,15.190914782007926,0.0,0.0,82.57142850118947,-45.94496649984729,69.05503191776492,-18.27325539814585,59.70903377029586,1.438810693790856,57.8289183025769,19.23815348469754,10,1.0691584019360383e-15,563.1126112145598,1.3756118076291891e-15,563.1126112145598,2.220446049250313e-13,0.0,0.04113043794398008,1.2256870507306066,0.04113043794398008
0.06222862600785232,295.5501779506434,-27.65352190108497,270.2555801412121,-43.25321345385896,258.8080066217152,-35.48525870540348,11.44757351949687,-7.76795474845548,58.836366620439364,19.45319439174755,211.4192135207727,-62.70640784560649,270.2555801412121,-43.25321345385896,25.294597809431295,15.59969155277399,0.0,0.0,82.52872668889643,-45.922556009825655,68.97195793796918,-18.252470298165427,59.91852889390711,1.4686184623845762,58.836366620439364,19.45319439174755,10,1.3061168903043946e-15,565.3943267672963,1.4178631874315639e-15,565.3943267672963,1.1102230246251565e-13,0.0,0.03701739414958216,1.2215740069362084,0.03701739414958216
0.06294389757116096,293.8921565355952,-29.603590382295078,267.82589544763107,-45.61346807495508,257.4918917773276,-38.58005366309743,10.334003670303446,-7.033414411857649,54.70033261285206,18.010232872108325,213.12556283477898,-63.6237009470634,267.82589544763107,-45.61346807495508,26.066261087964094,16.00987769266,0.0,0.0,83.63728342503276,-46.54204947560345,69.8578500516006,-18.48898268102207,59.630429358145655,1.4073312095621233,54.70033261285206,18.010232872108325,10,1.0995998016694868e-15,520.8813287473145,1.6756276963343192e-15,520.8813287473145,2.220446049250313e-13,0.0,0.03290435035518402,1.2174609631418103,0.03290435035518402
0.0636591691344696,294.75477983265716,-28.43261244748566,267.9084287735981,-44.85394565664578,258.9213505708225,-38.71890742520395,8.987078202775592,-6.1350382314418255,55.71541355432902,18.25191380467534,212.19301521926906,-63.10585946132116,267.9084287735981,-44.85394565664578,26.846351059059117,16.421333209160117,0.0,0.0,83.01959973110269,-46.197635585743875,69.37391740283267,-18.359249995569673,59.79949808533368,1.451026119992406,55.71541355432902,18.25191380467534,10,1.2019641537184968e-15,522.8431193094532,1.4112401264310582e-15,522.8431193094532,2.220446049250313e-13,0.0,0.0287913065607861,1.2133479193474124,0.0287913065607861
0.06437444069777826,296.47088060578784,-27.610614432244382,268.8361336253013,-44.44453495777552,261.1366641229876,-39.172744557728606,7.6994695023136615,-5.2717904000469105,56.72403160258739,18.480737153287897,212.11210202271386,-62.92527211106338,268.8361336253013,-44.44453495777552,27.634746980486593,16.833920525531134,0.0,0.0,82.84406432393027,-46.10072838696856,69.20832804484897,-18.315425629161673,60.05970965393462,1.490881905066864,56.72403160258739,18.480737153287897,10,1.337702211380653e-15,525.0296813814588,1.7085188492425965e-15,525.0296813814588,2.220446049250313e-13,0.0,0.02467826276638796,1.2092348755530145,0.02467826276638796
0.06508971226108691,298.44344572509544,-26.904439904390756,270.01211550979457,-44.15194436766333,263.5878364971799,-39.740126088865736,6.424279012614647,-4.411818278797597,57.71713805920117,18.690914446697093,212.2949774505934,-62.84285881436041,270.01211550979457,-44.15194436766333,28.431330215300868,17.247504463272577,0.0,0.0,82.80347632474407,-46.0793630020795,69.1327627166299,-18.296072105426184,60.35873840921944,1.5325762931452473,57.71713805920117,18.690914446697093,10,9.196951056926666e-16,527.3724281461077,9.859773391762693e-16,527.3724281461077,1.1102230246251565e-13,0.0,0.020565218971989818,1.2051218317586163,0.020565218971989818
0.06580498382439555,296.76735917495307,-28.84818573434237,267.5313749216091,-46.510137958241955,262.31183313024246,-42.91497275196812,5.219541791366623,-3.5951652062738333,53.48310103979354,17.239154753515727,214.04827388181553,-63.74929271175766,267.5313749216091,-46.510137958241955,29.235984253343965,17.661952223899586,0.0,0.0,83.90924455735336,-46.69737512667486,70.01266817639711,-18.531163868803343,60.126361148065044,1.479246283720542,53.48310103979354,17.239154753515727,10,9.2528930765419e-16,486.1957797881482,1.946894486098714e-15,486.1957797881482,2.220446049250313e-13,0.0,0.0164521751775919,1.2010087879642184,0.0164521751775919
0.0665202553877042,297.6657213181957,-27.69318120379659,267.6171265860846,-45.770314573819235,263.72630234417215,-43.082380865454354,3.890824241912469,-2.6879337083648807,54.43054828844642,17.456543692435844,213.18657829763825,-63.22685826625508,267.6171265860846,-45.770314573819235,30.048594732111077,18.077133370022644,0.0,0.0,83.29486678069964,-46.354478066831184,69.53552640670652,-18.402702215521668,60.356185110232104,1.5303220160977418,54.43054828844642,17.456543692435844,10,1.2259996245624359e-15,488.0812974093373,1.2682715396640004e-15,488.0812974093373,1.1102230246251565e-13,0.0,0.01233913138319398,1.1968957441698205,0.01233913138319398
0.06723552695101284,299.43918215589025,-26.880079578523002,268.57013269890876,-45.37299938427171,265.9774071780772,-43.576523619847535,2.59272552083155,-1.796475764424173,55.38551558019179,17.66717985414732,213.184617118717,-63.04017923841904,268.57013269890876,-45.37299938427171,30.86904945698146,18.492919805748706,0.0,0.0,83.12281533115559,-46.25922485475592,69.37497886286984,-18.359699865975262,60.686822924691555,1.578745482312165,55.38551558019179,17.66717985414732,10,1.0669163958838412e-15,490.24417604508403,1.0574078352373637e-15,490.24417604508403,2.220446049250313e-13,0.0,0.00822608758879606,1.1927827003754223,0.00822608758879606
0.0679507985143215,301.48906890474353,-26.17587464535317,269.7918304839256,-45.085060401771244,268.4937903914925,-44.1829946398793,1.298040092433098,-0.9020657618919472,56.33791807175465,17.865650208451072,213.45391241217095,-62.95071061022233,269.7918304839256,-45.085060401771244,31.697238420817957,18.909185756418076,0.0,0.0,83.08545866008188,-46.2393949489785,69.30399403884522,-18.341102421771158,61.064459713243885,1.6297867605273026,56.33791807175465,17.865650208451072,10,1.0002879277022623e-15,492.6710246748064,1.5871965751112251e-15,492.6710246748064,1.1102230246251565e-13,0.0,0.004113043794398141,1.1886696565810244,0.004113043794398141
0.06866607007763015,291.78666996406594,-33.12602469313611,280.4778903027566,-40.81844197969022,280.4778903027566,-40.81844197969022,0.0,0.0,64.94171651807659,22.984888826915864,215.53617378467993,-63.80333080660604,280.4778903027566,-40.81844197969022,11.308779661309355,7.69241728655411,0.0,0.0,84.18922589221346,-46.85622472645925,70.17543817444529,-18.574663009250752,61.17150971802116,1.6275569291039815,64.94171651807659,22.984888826915864,11,8.418595596753039e-16,743.8621793842018,2.0529867671634562e-15,743.8621793842018,1.1102230246251565e-13,0.0,0.0,1.3161740142073626,0.0
0.06938134164093879,292.82183667233517,-31.61661075809199,280.9752853015631,-39.644676583185515,242.50558979696095,-15.251496110098088,38.46969550460213,-24.393180473087426,66.44492256107097,23.435494424253896,214.53036274049214,-63.08017100743942,280.9752853015631,-39.644676583185515,11.846551370772083,8.028065825093524,0.0,0.0,83.29346109863772,-46.32850866117722,69.70349244939322,-18.44728295092962,61.53340919246119,1.6956206046674112,66.44492256107097,23.435494424253896,10,8.863462877508262e-16,747.1293028891703,1.5562245184036126e-15,747.1293028891703,1.1102230246251565e-13,0.0,0.12750435762633816,1.3120609704129647,0.12750435762633816
0.07009661320424744,292.9484046742009,-31.11029622422324,280.5538632104499,-39.4781746657182,243.33254740769803,-15.801868657806125,37.22131580275186,-23.676306007912075,66.33850644312218,23.483704415698313,214.21535676732776,-62.961879081416555,280.5538632104499,-39.4781746657182,12.39454146375104,8.367878441494957,0.0,0.0,83.14628916630608,-46.24863408954035,69.54664170650251,-18.40507395981243,61.52242589451914,1.691828967936246,66.33850644312218,23.483704415698313,10,1.6149232828972542e-15,750.9190536956761,1.5284694443864416e-15,750.9190536956761,2.220446049250313e-13,0.0,0.12339131383194024,1.3079479266185665,0.12339131383194024
0.07081188476755608,295.231677283442,-30.31474713256729,282.27906854450487,-39.02642934676888,246.24592971231093,-16.033522189167968,36.03313883219394,-22.99290715760091,67.68406245882605,23.850953482129725,214.5950060856788,-62.877382828898604,282.27906854450487,-39.02642934676888,12.952608738937132,8.711682214201586,0.0,0.0,83.13146689731121,-46.24274959339336,69.47878338121947,-18.38720629119299,61.98475580714813,1.7525730556877335,67.68406245882605,23.850953482129725,10,2.0851855338443656e-15,755.2904940612526,1.0834391423457927e-15,755.2904940612526,1.1102230246251565e-13,0.0,0.11927827003754232,1.3038348828241686,0.11927827003754232
0.07152715633086473,290.98510965290683,-32.898718518847105,277.4644957151258,-41.95802543102124,242.14964952780716,-19.35243041329207,35.314846187318636,-22.605595017729172,61.77498825114752,21.91590525752872,215.68950746397826,-63.873930688549976,277.4644957151258,-41.95802543102124,13.52061393778104,9.05930691217414,0.0,0.0,84.23810471252874,-46.861191487109906,70.3443006236001,-18.620120551589757,61.10710212784944,1.6073813501496872,61.77498825114752,21.91590525752872,10,1.1955812716947014e-15,692.9942726793043,2.526816714909021e-15,692.9942726793043,2.220446049250313e-13,0.0,0.11516522624314418,1.2997218390297707,0.11516522624314418
0.07224242789417337,292.20260353871475,-31.620590020816707,278.10418376967664,-41.0311750032333,244.23763563358457,-19.284627126800103,33.866548136092064,-21.746547876433198,63.16722798739024,22.335785525185727,214.93695578228642,-63.36696052841907,278.10418376967664,-41.0311750032333,14.09841976903812,9.410584982416593,0.0,0.0,83.65601295565524,-46.53800187503501,69.87653972611706,-18.493876898708272,61.40440310051412,1.664918245324209,63.16722798739024,22.335785525185727,10,8.596734841739942e-16,697.8310225096067,1.4007108692082896e-15,697.8310225096067,8.326672684688674e-14,0.0,0.11105218244874626,1.2956087952353728,0.11105218244874626
0.07295769945748203,294.21094804342056,-30.708107284710223,279.525057110766,-40.47345882140502,246.91816953961995,-19.470163333806568,32.606887571146046,-21.00329548759845,64.49067961553335,22.717698760444755,215.03437749523266,-63.19115758184981,279.525057110766,-40.47345882140502,14.68589093265456,9.765351536694793,0.0,0.0,83.50896448382974,-46.457912648470426,69.72243031114971,-18.45253481436844,61.802982700253224,1.7192898809890451,64.49067961553335,22.717698760444755,10,8.963102103247822e-16,703.896514874595,1.8861647750674423e-15,703.896514874595,2.220446049250313e-13,0.0,0.10693913865434812,1.2914957514409746,0.10693913865434812
0.07367297102079068,296.3932119191985,-29.947573983226615,281.11031777620116,-40.07101832068943,249.71069000974842,-19.782125477495242,31.39962776645274,-20.28889284319419,65.71510398487727,23.041305814957155,215.39521379132393,-63.1123241356466,281.11031777620116,-40.07101832068943,15.282894142997378,10.123444337462818,0.0,0.0,83.49429342902674,-46.45185495477066,69.65673228302468,-18.435468309462212,62.24418807927249,1.7749991285862805,65.71510398487727,23.041305814957155,10,1.0627983496219953e-15,711.1580357512902,1.5303410062290356e-15,711.1580357512902,2.220446049250313e-13,0.0,0.1028260948599502,1.2873827076465765,0.1028260948599502
0.07438824258409932,290.460506423271,-32.90956418315851,274.57120827183917,-43.39426796617073,243.9734517536944,-23.561806354191475,30.597756518144763,-19.832461611979255,58.901125365785056,20.825910489013545,215.67008290605403,-64.22017845518421,274.57120827183917,-43.39426796617073,15.88929815143185,10.484703783012218,0.0,0.0,84.59995924274143,-47.06970857090194,70.5208363502214,-18.66868347170636,60.54928731309123,1.5182135874240714,58.901125365785056,20.825910489013545,10,8.087688412369404e-16,646.2814809848152,2.368914245953129e-15,646.2814809848152,1.1102230246251565e-13,0.0,0.09871305106555206,1.2832696638521786,0.09871305106555206
0.07510351414740797,291.42454042478033,-31.68831254806304,274.9195666565318,-42.53728543992136,245.7575139176306,-23.57665364947303,29.162052738901195,-18.960631790448332,60.14385017598043,21.19674088154879,214.77571648055135,-63.73402632147014,274.9195666565318,-42.53728543992136,16.504973768248544,10.848972891858326,0.0,0.0,84.01707301355393,-46.74564186496491,70.05662500583819,-18.543652445937468,60.70201846115924,1.555267989432231,60.14385017598043,21.19674088154879,10,1.989564967146984e-15,649.9509044797237,1.5982114774006857e-15,649.9509044797237,1.1102230246251565e-13,0.0,0.09460000727115414,1.2791566200577806,0.09460000727115414
0.07581878571071661,293.1683218510107,-30.83041394841719,276.03852796706565,-42.04651123479684,248.14812145706355,-23.856412412531057,27.890406510002094,-18.19009882226578,61.331909606194046,21.536198330829095,214.7066183608716,-63.58270956562595,276.03852796706565,-42.04651123479684,17.129793883945062,11.216097286379652,0.0,0.0,83.87032032405966,-46.665432092320884,69.90483437784295,-18.503280280243615,60.93146365896901,1.586002806938538,61.331909606194046,21.536198330829095,10,1.231009943021372e-15,654.4776392724149,2.257704219861195e-15,654.4776392724149,2.220446049250313e-13,0.0,0.09048696347675622,1.2750435762633825,0.09048696347675622
0.07653405727402526,295.0804162828622,-30.116829354821483,277.31678279299757,-41.70275453054589,250.65354846024007,-24.259174038772244,26.663234332757497,-17.443580491773645,62.446038769127995,21.82934780035849,214.87074402386958,-63.53210233090438,277.31678279299757,-41.70275453054589,17.763633489864624,11.585925175724404,0.0,0.0,83.85600310652323,-46.659312808812416,69.8409968288629,-18.487123172945513,61.1737440884834,1.6143336508535668,62.446038769127995,21.82934780035849,10,1.0530651502695556e-15,659.8139008205422,1.950651312145913e-15,659.8139008205422,1.1102230246251565e-13,0.0,0.08637391968235808,1.2709305324689846,0.08637391968235808
0.0772493288373339,291.2007091312765,-32.61654278064452,272.7943394330798,-44.57485011864435,247.01816866268587,-27.659488084848817,25.776170770393946,-16.91536203379553,57.19149794474639,20.00112809869608,215.60284148833338,-64.5759782173404,272.7943394330798,-44.57485011864435,18.40636969819667,11.958307337999823,0.0,0.0,84.96126520675105,-47.276868479801394,70.707842472774,-18.72111622514962,59.933733808808334,1.4220064876106093,57.19149794474639,20.00112809869608,10,1.0975941069184843e-15,602.5157974719649,1.5551924098582489e-15,602.5157974719649,2.220446049250313e-13,0.0,0.08226087588796016,1.2668174886745867,0.08226087588796016
0.07796460040064256,292.0696956574907,-31.42830856670902,273.0118138961488,-43.76140566846746,248.6587005732277,-27.73070235098055,24.353113322921104,-16.03070331748691,58.38607469718049,20.340636804555082,214.6257391989683,-64.10204247302254,273.0118138961488,-43.76140566846746,19.05788176134189,12.333097101758442,0.0,0.0,84.37788129509214,-46.95210685994709,70.24704415731199,-18.597350199488798,60.000813746564184,1.4474145864133448,58.38607469718049,20.340636804555082,10,1.120684271949109e-15,605.3238953766388,1.6047266938171612e-15,605.3238953766388,1.1102230246251565e-13,0.0,0.07814783209356202,1.2627044448801885,0.07814783209356202
0.07867987196395121,293.7334166720801,-30.596409983194757,274.015365581433,-43.30656030999168,250.94647097189468,-28.0745304947377,23.06889460953832,-15.23202981525398,59.546301361188725,20.657141936146594,214.46906422024426,-63.96370224613827,274.015365581433,-43.30656030999168,19.71805109064711,12.710150326796924,0.0,0.0,84.231712811306,-46.87195122782911,70.0977318842907,-18.558032428811543,60.13961952464757,1.4662814105023898,59.546301361188725,20.657141936146594,10,1.3667739742261103e-15,608.6336850907957,2.41016720989843e-15,608.6336850907957,2.220446049250313e-13,0.0,0.0740347882991641,1.2585914010857904,0.0740347882991641
0.07939514352725985,295.59717669997286,-29.89488382739816,275.2104154254589,-42.984209211680394,253.3893438910286,-28.5319041575585,21.821071534430303,-14.452305054121894,60.66472745992941,20.94130734561248,214.5456879655295,-63.925516557292895,275.2104154254589,-42.984209211680394,20.38676127451396,13.089325384282235,0.0,0.0,84.21803138806929,-46.86594214704415,70.03610184780779,-18.54288079935288,60.291554729652454,1.483306389104122,60.66472745992941,20.94130734561248,10,1.011165346376498e-15,612.359290370922,1.4312520516938987e-15,612.359290370922,1.249000902703301e-13,0.0,0.06992174450476618,1.2544783572913925,0.06992174450476618
0.0801104150905685,292.968424566871,-32.14946846557494,271.9045264709859,-45.619951601794526,251.05736832151337,-31.770407899191042,20.847158149472534,-13.849543702603484,56.10301164091308,19.279545979144025,215.8015148300728,-64.89949758093856,271.9045264709859,-45.619951601794526,21.06389809588513,13.470483136219583,0.0,0.0,85.32307497775733,-47.4833515531446,70.90749772533718,-18.777519619951867,59.57094212697829,1.3613735921579178,56.10301164091308,19.279545979144025,10,1.2607629463265105e-15,562.3561369701054,1.0820698653425724e-15,562.3561369701054,2.220446049250313e-13,0.0,0.06580870071036804,1.2503653134969945,0.06580870071036804
0.08082568665387714,293.846436795712,-30.978558268445312,272.09708724659873,-44.83204518272271,252.66011267169455,-31.879934534745473,19.436974574904184,-12.952110647977236,57.25647371588678,19.59204955419979,214.84061353071192,-64.42409473692246,272.09708724659873,-44.83204518272271,21.749349549113283,13.853486914277395,0.0,0.0,84.73948556837722,-47.158104682916814,70.450106636211,-18.655001707214787,59.651021326123704,1.3890116532091312,57.25647371588678,19.59204955419979,10,1.0340710656234307e-15,564.7817906273547,1.6003959201012468e-15,564.7817906273547,1.1102230246251565e-13,0.0,0.06169565691597012,1.2462522697025966,0.06169565691597012
0.0815409582171858,295.5443792110668,-30.155807792509606,273.1013733548493,-44.39401029049384,254.96170726067427,-32.269559906238925,18.139666094175,-12.124450384254914,58.39743271575381,19.89017498648763,214.7039406390955,-64.28418527698147,273.1013733548493,-44.39401029049384,22.443005856217543,14.238202497984233,0.0,0.0,84.59413142055051,-47.078170351446225,70.30349814718912,-18.61674590852867,59.80631107135585,1.4107309829934138,58.39743271575381,19.89017498648763,10,1.2375781851090131e-15,567.6022853381876,1.9940099398313796e-15,567.6022853381876,2.220446049250313e-13,0.0,0.05758261312157198,1.2421392259081985,0.05758261312157198
0.08225622978049443,297.4767463715795,-29.451262364770294,274.33198688904844,-44.07576045708191,257.46148474049886,-32.7653367143123,16.870502148549576,-11.310423742769615,59.52196707412268,20.167297023869004,214.8100198149258,-64.24305748095094,274.33198688904844,-44.07576045708191,23.144759482531082,14.62449809231162,0.0,0.0,84.58127686599305,-47.072416993746806,70.2444803657259,-18.602619761899465,59.98426258320682,1.431979274695344,59.52196707412268,20.167297023869004,10,1.1491773976006048e-15,570.7652930603097,1.2236166550561962e-15,570.7652930603097,2.220446049250313e-13,0.0,0.05346956932717406,1.2380261821138006,0.05346956932717406
0.08297150134380309,295.4702843045399,-31.579072622422423,271.6157791527934,-46.59131692708101,255.8078570029113,-35.96112217664992,15.807922149882074,-10.630194750431087,55.174842521717416,18.576181175046123,216.44093663107597,-65.16749810212717,271.6157791527934,-46.59131692708101,23.85450515174655,15.012244304658589,0.0,0.0,85.68574362630531,-47.6895809535297,71.11972337764148,-18.83744205484525,59.63546962712917,1.3595249062477848,55.174842521717416,18.576181175046123,10,9.699232548133727e-16,525.3526373271767,1.178256646888283e-15,525.3526373271767,9.71445146547012e-14,0.0,0.04935652553277592,1.2339131383194024,0.04935652553277592
0.08368677290711174,296.3857417341602,-30.423564028773292,271.81360187379715,-45.824878150025114,257.4026416951558,-36.10476706538333,14.410960178641346,-9.720111084641786,56.27133551739525,18.86077358193797,215.5422663564019,-64.68565173196308,271.81360187379715,-45.824878150025114,24.572139860363034,15.401314121251824,0.0,0.0,85.10211573897672,-47.36401458657537,70.66732249469422,-18.71628970397186,59.772828122730964,1.3946525585841627,56.27133551739525,18.86077358193797,10,1.0887708498957678e-15,527.5864788089552,9.66598641949457e-16,527.5864788089552,1.1102230246251565e-13,0.0,0.045243481738378,1.2298000945250045,0.045243481738378
0.08440204447042038,298.14571195664166,-29.609158038449877,272.8481490651016,-45.400740921426035,259.74807313739683,-36.53813317517796,13.10007592770478,-8.862607746248074,57.37298930248184,19.13808239599333,215.47515976261974,-64.53882331741936,272.8481490651016,-45.400740921426035,25.297562891540032,15.791582882976158,0.0,0.0,84.95764508898307,-47.284401121729665,70.52661797263559,-18.679413613707627,59.99089670100109,1.4249914180179317,57.37298930248184,19.13808239599333,10,1.4167132844883516e-15,530.2058393739942,1.2889990413056112e-15,530.2058393739942,1.1102230246251565e-13,0.0,0.04113043794398008,1.2256870507306066,0.04113043794398008
0.08511731603372903,300.16674295203836,-28.903986848936967,274.13606712367425,-45.086915109587096,262.32716710943146,-37.07375476057538,11.808900014242795,-8.013160349011713,58.47556752296266,19.40268461728011,215.66049960071155,-64.48959972686716,274.13606712367425,-45.086915109587096,26.030675828364096,16.18292826065013,0.0,0.0,84.9456299821413,-47.27897021269318,70.47493638804407,-18.66682044502243,60.23993323052619,1.4561909308484573,58.47556752296266,19.40268461728011,10,1.0539628496393882e-15,533.2084346311893,1.6196254256423831e-15,533.2084346311893,1.1102230246251565e-13,0.0,0.03701739414958216,1.2215740069362084,0.03701739414958216
0.08583258759703767,298.33765825929913,-30.97529354948498,271.56627569276617,-47.55052377924579,260.9106498421363,-40.298195628525605,10.65562585062986,-7.252328150720189,54.14266688616849,17.843959663278675,217.42360880659766,-65.39448344252446,271.56627569276617,-47.55052377924579,26.771382566532957,16.575230229760813,0.0,0.0,86.04877137684721,-47.89558131384403,71.35237898346044,-18.90149525310931,60.022458446290024,1.4025931244288614,54.14266688616849,17.843959663278675,10,1.1872952667625392e-15,491.31405517361424,1.7190968806473334e-15,491.31405517361424,1.1102230246251565e-13,0.0,0.03290435035518402,1.2174609631418105,0.03290435035518402
0.08654785916034632,299.2761948849846,-29.83952002928101,271.7566055585213,-46.80789107395353,262.48428743572754,-40.4781238387381,9.272318122793763,-6.329767235215428,55.16573010276832,18.09870312768092,216.59087545575295,-64.90659420163442,271.7566055585213,-46.80789107395353,27.519589326463272,16.968371044672516,0.0,0.0,85.4651276606719,-47.56979292058148,70.90794903372617,-18.78203932899398,60.217798761354885,1.4452380479410323,55.16573010276832,18.09870312768092,10,9.246554370881203e-16,493.4190842957784,2.555315223329794e-15,493.4190842957784,2.220446049250313e-13,0.0,0.0287913065607861,1.2133479193474124,0.0287913065607861
0.08726313072365498,301.07998876342145,-29.039226567487816,272.8047840985948,-46.4014617798112,264.85740011152893,-40.95991947961289,7.947383987065848,-5.441542300198307,56.20746747234307,18.351684881964168,216.5973166262517,-64.75314666177539,272.8047840985948,-46.4014617798112,28.275204664826656,17.362235212323384,0.0,0.0,85.32156666715039,-47.490568385752766,70.77474808376365,-18.746704205497306,60.50100187533765,1.4841259294747076,56.20746747234307,18.351684881964168,10,1.4926853274665019e-15,495.9241795271501,2.2464965653581594e-15,495.9241795271501,2.220446049250313e-13,0.0,0.02467826276638796,1.2092348755530145,0.02467826276638796
0.08797840228696362,303.1639253322765,-28.341529483519476,274.12578584675515,-46.098238948944186,267.492252471672,-41.542713610200735,6.633533375083175,-4.5555253387434504,57.26262263256989,18.59823477710345,216.8631632141853,-64.69647372604767,274.12578584675515,-46.098238948944186,29.038139485521356,17.75670946542471,0.0,0.0,85.31084571210226,-47.48569197145463,70.73007507515658,-18.735448889257967,60.822242426926465,1.5246671346649237,57.26262263256989,18.59823477710345,10,9.808505211069253e-16,498.875171349189,1.5625539497041827e-15,498.875171349189,2.220446049250313e-13,0.0,0.020565218971989818,1.2051218317586163,0.020565218971989818
0.08869367385027227,303.25406555955857,-29.919229335942802,273.4457585094757,-48.070912071118784,268.05843064805043,-44.36017582970874,5.387327861425263,-3.7107362414100464,54.5836753112147,17.49019583070976,218.862083198261,-65.56110790182854,273.4457585094757,-48.070912071118784,29.808307050082853,18.15168273517598,0.0,0.0,86.41300658193543,-48.10185083082697,71.60307604701023,-18.969023506526245,60.84600056931533,1.509766435524682,54.5836753112147,17.49019583070976,10,1.0483638555968266e-15,460.1525634412295,1.7512705862422528e-15,460.1525634412295,2.220446049250313e-13,0.0,0.0164521751775919,1.2010087879642184,0.0164521751775919
0.08940894541358091,304.39243110805023,-28.76842184541389,273.806808120508,-47.31546796892508,269.78863023583096,-44.53955265739879,4.018177884677016,-2.7759153115262905,55.66529543108714,17.745001399183487,218.14151268942084,-65.06046936810853,273.806808120508,-47.31546796892508,30.585622987542223,18.547046123511187,0.0,0.0,85.83095975517284,-47.77657844703924,71.16440175716103,-18.850555797036275,61.14615117708697,1.5666648759669783,55.66529543108714,17.745001399183487,10,1.2213989764532276e-15,462.1563568754416,1.185643578016394e-15,462.1563568754416,1.1102230246251565e-13,0.0,0.01233913138319398,1.1968957441698205,0.01233913138319398
0.09012421697688956,306.44209221915884,-27.94372381958903,275.07208691542314,-46.88641669447796,272.39335708989876,-45.0303491246672,2.6787298255243854,-1.8560675698107616,56.79033049073409,18.005252678197145,218.2817564246891,-64.89166937267514,275.07208691542314,-46.88641669447796,31.3700053037357,18.942692874888927,0.0,0.0,85.69007025037683,-47.698517861808035,71.03571384475285,-18.81589908683602,61.555972329559395,1.6227475759689298,56.79033049073409,18.005252678197145,10,1.0191556354038058e-15,464.57681469914144,1.2359381638145831e-15,464.57681469914144,2.220446049250313e-13,0.0,0.00822608758879606,1.1927827003754223,0.00822608758879606
0.0908394885401982,308.8198660285025,-27.21071777305795,276.6584916384294,-46.54923612069908,275.316936022562,-45.61692946140619,1.341555615867378,-0.932306659292891,57.95510781216832,18.267424946813797,218.70338382626105,-64.81666106751285,276.6584916384294,-46.54923612069908,32.161374390073114,19.338518347641127,0.0,0.0,85.68188716860574,-47.69475659830805,70.99515014538339,-18.80526563011178,62.02634651227194,1.683361160906962,57.95510781216832,18.267424946813797,10,1.3959325910558005e-15,467.5006357734793,1.5425754285263636e-15,467.5006357734793,2.220446049250313e-13,0.0,0.004113043794398141,1.1886696565810244,0.004113043794398141
0.09155476010350685,298.3977442120431,-34.23760643056538,286.24724144943775,-42.56093638981346,286.24724144943775,-42.56093638981346,0.0,0.0,65.62604858358814,23.12932347965706,220.6211928658496,-65.69025986947054,286.24724144943775,-42.56093638981346,12.150502762605376,8.323329959248083,0.0,0.0,86.78376661240098,-48.31072078012587,71.86001543163398,-19.037350119848618,61.9774108218146,1.657811030504,65.62604858358814,23.12932347965706,11,8.793290649640875e-16,700.933676673279,2.220488186710365e-15,700.933676673279,1.1102230246251565e-13,0.0,0.0,1.3161740142073626,0.0
0.09227003166681551,299.5069245342642,-32.755018755710914,286.8312728658588,-41.4055104417219,247.10017759100145,-16.211667187009198,39.73109527485735,-25.193843254712704,67.11834362307059,23.581936692615926,219.71292924278822,-64.98744713433786,286.8312728658588,-41.4055104417219,12.675651668405425,8.650491686010987,0.0,0.0,85.9114464311763,-47.79493618864908,71.4253729998917,-18.919622421965396,62.37610981172021,1.727111476276626,67.11834362307059,23.581936692615926,10,1.1372534256062418e-15,703.7293365741157,1.261753983048654e-15,703.7293365741157,2.220446049250313e-13,0.0,0.12750435762633816,1.3120609704129647,0.12750435762633816
0.09298530323012415,299.53616968270126,-32.30696654147962,286.3264181159326,-41.288001824842695,247.86862615484046,-16.824448871282158,38.45779196109214,-24.463552953560537,66.87941519657315,23.61157283042786,219.44700291935942,-64.89957465527054,286.3264181159326,-41.288001824842695,13.209751566768633,8.981035283363077,0.0,0.0,85.79493830906439,-47.73196767770459,71.29971481953483,-18.885556592079354,62.352349790760215,1.717949614513394,66.87941519657315,23.61157283042786,10,8.315761020790022e-16,706.9338405232262,1.6918957966495124e-15,706.9338405232262,1.1102230246251565e-13,0.0,0.12339131383194024,1.3079479266185665,0.12339131383194024
0.0937005747934328,301.9462156939884,-31.506485927956984,288.1935276811803,-40.82129917054269,250.95062963618741,-17.05579548625124,37.24289804499287,-23.765503684291446,68.28232453812393,24.01712413464915,219.91120314305635,-64.83842330519182,288.1935276811803,-40.82129917054269,13.752688012808132,9.314813242585704,0.0,0.0,85.80903932659447,-47.74202263339069,71.26165659078887,-18.875458061027672,62.840507225672994,1.7790573892265584,68.28232453812393,24.01712413464915,10,1.1357610440397559e-15,710.5973688775541,1.955342355130059e-15,710.5973688775541,2.220446049250313e-13,0.0,0.11927827003754232,1.3038348828241686,0.11927827003754232
0.09441584635674144,297.72380780264785,-34.16387363890033,283.41945899005145,-43.81555429722505,246.9328230360486,-20.459290466425585,36.48663595400285,-23.356263830799463,62.325125192499335,22.00366907355162,221.0943337975521,-65.81922337077665,283.41945899005145,-43.81555429722505,14.304348812596409,9.651680658324722,0.0,0.0,86.91552836905277,-48.36061506744525,72.11979794364177,-19.10671967392761,62.059007484857574,1.6481113705962258,62.325125192499335,22.00366907355162,10,1.0658421870981708e-15,653.8170018298845,2.299058501692634e-15,653.8170018298845,2.220446049250313e-13,0.0,0.1151652262431444,1.2997218390297707,0.1151652262431444
0.09513111792005009,299.1114514274252,-32.899504085117016,284.24682739138547,-42.89099929005661,249.23760112855473,-20.41020464063766,35.00922626283074,-22.480794649418954,63.76736564242348,22.440102587995447,220.479461748962,-65.3311018780521,284.24682739138547,-42.89099929005661,14.864624036039718,9.991495204939595,0.0,0.0,86.3630776981888,-48.053545001292186,71.68803839609996,-18.98973565681134,62.42834565467323,1.7121787800514525,63.76736564242348,22.440102587995447,10,1.1379261645398691e-15,658.2333416380603,1.997443891529483e-15,658.2333416380603,2.220446049250313e-13,0.0,0.11105218244874626,1.2956087952353725,0.11105218244874626
0.09584638948335873,301.32143084322513,-31.981997843469415,285.8880248140514,-42.31611495575251,252.1673768885114,-20.594965458289266,33.72064792553999,-21.721149497463244,65.17363689560628,22.855916476583914,220.71438791844514,-65.17203143233644,285.8880248140514,-42.31611495575251,15.433406029173755,10.334117112283094,0.0,0.0,86.24600525735005,-47.98997786847551,71.56431218613768,-18.956282663907263,62.90407047495743,1.7742291000463126,65.17363689560628,22.855916476583914,10,1.0485332236995347e-15,663.7967408110353,2.6399025631353266e-15,663.7967408110353,1.1102230246251565e-13,0.0,0.10693913865434834,1.2914957514409746,0.10693913865434834
0.09656166104666739,303.75603352328403,-31.190778722073198,287.74544409739633,-41.870187863000496,255.26263543574944,-20.881015925397264,32.482808661646885,-20.98917193760323,66.52833053814965,23.237463753155374,221.21711355924668,-65.10765161615585,287.74544409739633,-41.870187863000496,16.010589425887698,10.6794091409273,0.0,0.0,86.25961123050584,-47.99949821514224,71.5276572215584,-18.946742099030097,63.429845107182445,1.8385886980164656,66.52833053814965,23.237463753155374,10,1.0138971263158826e-15,670.6400388610159,8.984161767496152e-16,670.6400388610159,1.1102230246251565e-13,0.0,0.1028260948599502,1.2873827076465765,0.1028260948599502
0.09727693260997604,296.7144238689698,-34.44144197711428,280.1183527098885,-45.468678533964066,248.47663559340512,-24.95921158199627,31.641717116483363,-20.509466951967795,58.94024055526174,20.78707356572061,221.17811215462675,-66.2557520996847,280.1183527098885,-45.468678533964066,16.596071159081315,11.02723655684979,0.0,0.0,87.36661993978235,-48.618373978005295,72.38352450744368,-19.17817631049195,61.4279677074007,1.5407981888125377,58.94024055526174,20.78707356572061,10,1.0611092086495377e-15,610.7081734124665,1.2400206308230674e-15,610.7081734124665,1.1102230246251565e-13,0.0,0.09871305106555206,1.2832696638521786,0.09871305106555206
0.09799220417328468,297.77240501566195,-33.243906186900496,280.58265454439925,-44.6213732924962,250.40997903259444,-25.003363776777206,30.172675511804812,-19.618009515718995,60.19406205160563,21.16944316055826,220.3885924927936,-65.79081645305448,280.58265454439925,-44.6213732924962,17.189750471262702,11.377467105595704,0.0,0.0,86.81170823741951,-48.309492899306136,71.95401355928283,-19.062007737241366,61.62287069609128,1.5806841834930268,60.19406205160563,21.16944316055826,10,1.0970257558005735e-15,614.3002378221163,1.224670021826915e-15,614.3002378221163,1.1102230246251565e-13,0.0,0.09460000727115414,1.2791566200577806,0.09460000727115414
0.09870747573659333,299.642273694315,-32.39158168533616,281.8507447697234,-44.12155267126559,252.9825636056163,-25.293503420466124,28.868181164107114,-18.828049250799467,61.42840635631412,21.538121025610955,220.42233841340928,-65.65967369687654,281.8507447697234,-44.12155267126559,17.79152892459163,11.72997098592943,0.0,0.0,86.69414467099752,-48.24536725107014,71.83178259784597,-19.02926671547133,61.8964111445658,1.6149602696649126,61.42840635631412,21.538121025610955,10,1.164830218072697e-15,618.8837737853735,1.952869044030459e-15,618.8837737853735,2.220446049250313e-13,0.0,0.09048696347675622,1.2750435762633825,0.09048696347675622
0.09942274729990197,301.723179353229,-31.66067039456127,283.3218689428528,-43.74529121755265,255.71524233774272,-25.684317651965927,27.60662660511008,-18.06097356558672,62.63300449408163,21.882336452219732,220.6888644487712,-65.62762766977241,283.3218689428528,-43.74529121755265,18.401310410376173,12.08462082299138,0.0,0.0,86.70736228247878,-48.25441133365406,71.79621088988489,-19.020391881418373,62.18529127640751,1.6471755453000156,62.63300449408163,21.882336452219732,10,1.3153469316655143e-15,624.6438489668091,9.779450300447595e-16,624.6438489668091,1.1102230246251565e-13,0.0,0.0863739196823583,1.2709305324689846,0.0863739196823583
0.10013801886321062,297.22982116443967,-34.3477798220232,278.21082000641167,-46.78907146299676,251.5320294496861,-29.281188537193657,26.678790556725573,-17.507882925803102,56.98421729876312,19.905488634463232,221.2266027076485,-66.69456009745994,278.21082000641167,-46.78907146299676,19.019001158028022,12.441291640973562,0.0,0.0,87.81545729324382,-48.87383593815185,72.6549415325041,-19.25278275956779,60.75620388190059,1.432058600259701,56.98421729876312,19.905488634463232,10,1.1481369373541165e-15,570.5665094099089,1.2273194239223345e-15,570.5665094099089,2.220446049250313e-13,0.0,0.08226087588796038,1.2668174886745864,0.08226087588796038
0.10085329042651928,298.14830529730403,-33.189941767611316,278.5037955538205,-45.98980260293999,253.28541136857896,-29.38937417595824,25.218384185241547,-16.60042842698175,58.172616669038256,20.253004093175697,220.33117888478228,-66.2428066961157,278.5037955538205,-45.98980260293999,19.644509743483514,12.799860835328673,0.0,0.0,87.25831021740035,-48.563284448546376,72.22766036634927,-19.13752583804613,60.84520830103263,1.458003590476828,58.172616669038256,20.253004093175697,10,1.0944242024453157e-15,573.4328573220288,1.8451358101825454e-15,573.4328573220288,2.220446049250313e-13,0.0,0.07814783209356224,1.2627044448801885,0.07814783209356224
0.10156856198982792,299.887409344081,-32.374031589845664,279.609662246984,-45.53423973437259,255.71219216855178,-29.754989652327964,23.897470078432207,-15.779250082044626,59.35788975974933,20.592567350904837,220.25177248723463,-66.12680708527739,279.609662246984,-45.53423973437259,20.27774709709702,13.160208144526926,0.0,0.0,87.14049053486168,-48.498742233755216,72.10717557995798,-19.105623527483576,61.00410637241495,1.4775586759614256,59.35788975974933,20.592567350904837,10,1.2998932835937922e-15,576.9852686861503,1.2633213832984301e-15,576.9852686861503,1.1102230246251565e-13,0.0,0.07403478829916432,1.2585914010857904,0.07403478829916432
0.10228383355313657,301.8588738752787,-31.670160648976037,280.9402473642657,-45.192376270350564,258.32870373164803,-30.21643207038659,22.611543632617668,-14.975944199963976,60.539161806909604,20.917592696510226,220.40108555735608,-66.10996896686075,280.9402473642657,-45.192376270350564,20.918626511012974,13.52221562137453,0.0,0.0,87.15355740656715,-48.507453222830314,72.07311233688219,-19.097553868175297,61.17441581390674,1.4950381241448696,60.539161806909604,20.917592696510226,10,9.114519974408986e-16,581.3259399714535,9.997936797252458e-16,581.3259399714535,2.220446049250313e-13,0.0,0.06992174450476618,1.2544783572913925,0.06992174450476618
0.10299910511644521,298.93799888874776,-34.0442181579924,277.37093524272444,-47.929985761900184,255.77590377876638,-33.58351378540678,21.595031463958065,-14.346471976493405,55.80007872774007,19.163741519874144,221.57085651498437,-67.09372728177436,277.37093524272444,-47.929985761900184,21.567063646023335,13.885767603907787,0.0,0.0,88.26306932274008,-49.12763153547484,72.93781282534499,-19.331099689954925,60.36997436689934,1.3650039436553953,55.80007872774007,19.163741519874144,10,1.0580998783191346e-15,533.839233304626,1.367033329666686e-15,533.839233304626,2.220446049250313e-13,0.0,0.06580870071036804,1.2503653134969945,0.06580870071036804
0.10371437667975386,299.83816694985967,-32.90937236626349,277.6151904119416,-47.16012305214073,257.4714550144286,-33.7369833656592,20.143735397513012,-13.423139686481534,56.93880829852701,19.480519297787104,220.67638211341463,-66.64064234992782,277.6151904119416,-47.16012305214073,22.22297653791806,14.250750685877245,0.0,0.0,87.70396238402093,-48.81560582427958,72.51297147001961,-19.216807294850444,60.459448259374064,1.3917707692022319,56.93880829852701,19.480519297787104,10,1.8747174081284755e-15,536.3495711585801,1.2458060591338159e-15,536.3495711585801,2.220446049250313e-13,0.0,0.06169565691597012,1.2462522697025964,0.06169565691597012
0.1044296482430625,301.5785037360059,-32.112051097088454,278.6922181326722,-46.72910478392296,259.8862270404347,-34.15923241608746,18.805991092237548,-12.5698723678355,58.09009637147526,19.7948774780022,220.60212176119697,-66.52398226192514,278.6922181326722,-46.72910478392296,22.886285603333697,14.617053686834508,0.0,0.0,87.58611359576562,-48.75080757853764,72.3946594304926,-19.18581875524339,60.62134873493874,1.4126440718558797,58.09009637147526,19.7948774780022,10,1.3106427244445443e-15,539.4196428393392,1.8421789165745077e-15,539.4196428393392,1.1102230246251565e-13,0.0,0.0575826131215722,1.2421392259081985,0.0575826131215722
0.10514491980637115,303.5780359527833,-31.418222479027587,280.02112230767443,-46.40279010086411,262.5260118855002,-34.67357090610693,17.495110422174207,-11.729219194757178,59.25562529524896,20.102423674728925,220.76549701242544,-66.50521377559298,280.02112230767443,-46.40279010086411,23.55691364510889,14.984567621836522,0.0,0.0,87.599227457834,-48.75932935073165,72.36269632382314,-19.178640522745543,60.803573230768286,1.4327560978841944,59.25562529524896,20.102423674728925,10,1.2785001741096819e-15,543.1418837286038,1.082745754730737e-15,543.1418837286038,1.6653345369377348e-13,0.0,0.05346956932717428,1.2380261821138006,0.05346956932717428
0.1058601913696798,301.4622740641582,-33.62353868220801,277.227488207006,-48.976724352987816,260.8396370015829,-37.956516136775036,16.38785120542309,-11.02020821621278,54.8464553052454,18.456069916573945,222.38103290176056,-67.43279426956175,277.227488207006,-48.976724352987816,24.23478585715218,15.35318567077981,0.0,0.0,88.70998693202138,-49.380249615506806,73.23336302167395,-19.413006387527293,60.43768294806526,1.3604617334723415,54.8464553052454,18.456069916573945,10,1.1849619182790168e-15,500.05739136295773,1.83633879601378e-15,500.05739136295773,1.1102230246251565e-13,0.0,0.04935652553277614,1.2339131383194024,0.04935652553277614
0.10657546293298845,302.3818754065783,-32.508716972786516,277.4620455777484,-48.23152012016507,262.5157529333571,-38.15030543878427,14.946292644391349,-10.0812146813808,55.92083389826061,18.74103786540779,221.54121167948782,-66.97255798557285,277.4620455777484,-48.23152012016507,24.919829828829826,15.72280314737856,0.0,0.0,88.14910570012404,-49.0669228675404,72.81236794576324,-19.299811169447167,60.579738033600535,1.3941760514147035,55.92083389826061,18.74103786540779,10,1.602762661557371e-15,502.373865950145,2.1635978223628036e-15,502.373865950145,1.1102230246251565e-13,0.0,0.04524348173837822,1.2298000945250045,0.04524348173837822
0.1072907344962971,304.1616997722413,-31.72757350766666,278.54972422336033,-47.8208909754664,264.95836296953786,-38.62589542354576,13.59136125382247,-9.194995551920641,57.01994142685452,19.028092579243015,221.5297827965058,-66.8489835547094,278.54972422336033,-47.8208909754664,25.611975548880988,16.09331746779974,0.0,0.0,88.03132172824994,-49.0019785955128,72.69897691115128,-19.270032143327036,60.79948415710459,1.4230271841304187,57.01994142685452,19.028092579243015,10,9.460362723182744e-16,505.21173934704535,1.2240638440808636e-15,505.21173934704535,2.220446049250313e-13,0.0,0.04113043794398008,1.2256870507306064,0.04113043794398008
0.10800600605960574,306.2216871427658,-31.04365994455075,279.9105317338999,-47.50828806351848,267.6555453851151,-39.192414472984524,12.254986348784826,-8.315873590533954,58.14479258384325,19.313882351741576,221.7657391500567,-66.82217041526009,279.9105317338999,-47.50828806351848,26.311155408865897,16.464628118967727,0.0,0.0,88.04452681564317,-49.01039221466341,72.6731583048138,-19.26419927254866,61.04805402959974,1.4524210719519672,58.14479258384325,19.313882351741576,10,1.1458784817842348e-15,508.6854482236156,1.8003604534319795e-15,508.6854482236156,1.1102230246251565e-13,0.0,0.03701739414958216,1.2215740069362084,0.03701739414958216
0.10872127762291439,306.20624500419837,-32.69758934249629,279.1889407980427,-49.534225969048265,268.13423927190695,-42.010273476530756,11.054701526135773,-7.523952492517509,55.50658517752173,18.173377021780773,223.68235562052098,-67.70760299082903,279.1889407980427,-49.534225969048265,27.017304206155657,16.83663662655197,0.0,0.0,89.1559215888442,-49.63182128366041,73.54751770168228,-19.498886447592664,60.97891632999448,1.4231047404240442,55.50658517752173,18.173377021780773,10,8.59108413324013e-16,468.9913475813772,1.6939441328741537e-15,468.9913475813772,1.1102230246251565e-13,0.0,0.03290435035518402,1.2174609631418103,0.03290435035518402
0.10943654918622303,307.3309382771523,-31.564292389494547,279.6005791306827,-48.77353891214457,269.97695965878063,-42.20394925151291,9.623619471902089,-6.569589660631664,56.656934935845385,18.460782642844308,222.94364419483733,-67.23432155498887,279.6005791306827,-48.77353891214457,27.730359146469617,17.209246522650027,0.0,0.0,88.59331343905998,-49.317305479054134,73.13289725794462,-19.38706765323675,61.21743349783273,1.4700515773020015,56.656934935845385,18.460782642844308,10,1.1575552933146877e-15,471.16854392560555,1.017660120135396e-15,471.16854392560555,1.1102230246251565e-13,0.0,0.0287913065607861,1.2133479193474124,0.0287913065607861
0.11015182074953168,309.3608720357614,-30.756430655352784,280.9106121897932,-48.338793968531604,272.6594387102574,-42.68924468290362,8.251173479535794,-5.649549285627984,57.8592072180104,18.7576294104123,223.0514049717828,-67.09642337894391,280.9106121897932,-48.338793968531604,28.45025984596823,17.58236331317882,0.0,0.0,88.47564215245859,-49.25229589508712,73.02583107962853,-19.358630337020408,61.54993173969565,1.5145028531636484,57.8592072180104,18.7576294104123,10,1.1322003094349706e-15,473.8531043255575,1.2250932250979187e-15,473.8531043255575,1.3877787807814457e-13,0.0,0.02467826276638818,1.2092348755530145,0.02467826276638818
0.11086709231284034,311.71834923368823,-30.035095787037587,282.54140090078016,-47.990990232024075,275.6526096950829,-43.26016670123178,6.88879120569726,-4.730823530792293,59.11587421432162,19.061800480286436,223.42552668645857,-67.05279071231051,282.54140090078016,-47.990990232024075,29.176948332908083,17.955894444986487,0.0,0.0,88.48941269347185,-49.26084599970593,73.00588591180782,-19.35394445809242,61.930228081178896,1.5619997454878316,59.11587421432162,19.061800480286436,10,1.44805712590006e-15,477.18448475822174,1.4324605899171121e-15,477.18448475822174,2.220446049250313e-13,0.0,0.02056521897199004,1.2051218317586163,0.02056521897199004
0.11158236387614898,308.63512975741577,-32.43204425228673,278.72476070855,-50.761793524983375,273.1317842630961,-46.90940758662063,5.592976445453871,-3.852385938362744,53.62294922259346,17.21342387081834,225.10181148595652,-67.9752173958017,278.72476070855,-50.761793524983375,29.91036904886579,18.329749272696642,0.0,0.0,89.60181236863376,-49.88291222121549,73.87649332840962,-19.58773242720827,61.62350578891312,1.4954272526220507,53.62294922259346,17.21342387081834,10,1.904192312226244e-15,440.5256415404229,1.332059437817824e-15,440.5256415404229,1.1102230246251565e-13,0.0,0.01645217517759212,1.2010087879642184,0.01645217517759212
0.11229763543945763,309.51654961343434,-31.38151380931885,278.8660807638951,-50.08535283461694,274.69287925524844,-47.20234069565882,4.1732015086466845,-2.8830121389581223,54.476880021242835,17.41527406460203,224.3892007426523,-67.50062689921894,278.8660807638951,-50.08535283461694,30.650468849539227,18.70383902529809,0.0,0.0,89.03908375976171,-49.567948649692866,73.46593438465665,-19.476541729437585,61.88418259823392,1.5438634799114936,54.476880021242835,17.41527406460203,10,1.168104473319691e-15,442.5879509286493,1.1231868385666163e-15,442.5879509286493,1.1102230246251565e-13,0.0,0.01233913138319398,1.1968957441698205,0.01233913138319398
0.11301290700276627,310.0164552886032,-30.955550812724496,278.6192582834713,-50.03362758521561,275.83632220104784,-48.105356330215216,2.7829360824234755,-1.9282712550003964,54.29972691441422,17.359676287060942,224.31953136905713,-67.3933038722766,278.6192582834713,-50.03362758521561,31.397197005131904,19.078076772491116,0.0,0.0,88.92327702579628,-49.50364884055026,73.36210171122853,-19.448534910133326,62.034152632032324,1.5588798784069837,54.29972691441422,17.359676287060942,10,1.0453756537282064e-15,445.1477197088768,1.6592232617907872e-15,445.1477197088768,1.1102230246251565e-13,0.0,0.00822608758879606,1.1927827003754223,0.00822608758879606
0.11372817856607492,312.1148834226401,-30.31280625725967,279.964378222312,-49.76518364806205,278.5703171070611,-48.796388568526396,1.3940611152509064,-0.9687950795356528,55.27154402372413,17.58829304283872,224.6928341985879,-67.3534766909008,279.964378222312,-49.76518364806205,32.15050520032811,19.45237739080238,0.0,0.0,88.93885756729921,-49.51290102444983,73.34500605435257,-19.444220116494428,62.408970576936106,1.6036444500434683,55.27154402372413,17.58829304283872,10,1.2192705109490112e-15,448.3634552670722,1.2950957088225427e-15,448.3634552670722,1.1102230246251565e-13,0.0,0.004113043794398141,1.1886696565810244,0.004113043794398141
0.11444345012938356,300.042887419165,-37.581167603996334,287.4021372177412,-46.28974006992112,287.4021372177412,-46.28974006992112,0.0,0.0,61.22767674584851,22.010959529164865,226.17446047189264,-68.30069959908597,287.4021372177412,-46.28974006992112,12.640750201423803,8.70857246592479,0.0,0.0,90.05289596974333,-50.13584567476562,74.20688149451821,-19.676366087879238,61.91468300763111,1.5115121635588835,61.22767674584851,22.010959529164865,11,1.0409625335368867e-15,669.8581340866724,1.7567040984992379e-15,669.8581340866724,2.220446049250313e-13,0.0,0.0,1.3161740142073626,0.0
0.11515872169269221,300.8681822215318,-36.168609072866424,287.72256561523153,-45.19073392478742,246.45503945678522,-19.02226884846047,41.267526158446316,-26.168465076326953,62.57542265020138,22.43731764243325,225.14714296503013,-67.62805156722068,287.72256561523153,-45.19073392478742,13.1456166063003,9.022124851920998,0.0,0.0,89.18387651280129,-49.620051668261496,73.7984149872157,-19.565462919951514,62.16485146501313,1.5574630209923441,62.57542265020138,22.43731764243325,10,1.3776361302811352e-15,672.3212664338536,2.308086907888865e-15,672.3212664338536,1.1102230246251565e-13,0.0,0.12750435762633816,1.3120609704129647,0.12750435762633816
0.11587399325600087,302.8673341003658,-35.31282569596085,289.2088651539261,-44.65131823643932,249.2506456046351,-19.233011089002957,39.958219549291016,-25.418307147436366,63.92033800032608,22.858341326598,225.2885271536,-67.50965956303729,289.2088651539261,-44.65131823643932,13.658468946439644,9.338492540478468,0.0,0.0,89.0929999934961,-49.571264903090565,73.69607603413017,-19.53769966901163,62.499451125973735,1.5993050090649064,63.92033800032608,22.858341326598,10,1.3274848299356729e-15,675.1192280405796,2.0986334569987977e-15,675.1192280405796,2.220446049250313e-13,0.0,0.12339131383194024,1.3079479266185665,0.12339131383194024
0.11658926481930951,305.117549131352,-34.561659196644044,290.938326557479,-44.21921266539479,252.23254016010458,-19.51994146416601,38.705786397374425,-24.699271201228783,65.26181260937634,23.267729967912025,225.67651394810267,-67.4869426333068,290.938326557479,-44.21921266539479,14.179222573873016,9.657553468750748,0.0,0.0,89.13143610928219,-49.59476473392,73.67998246929156,-19.533570227475288,62.86509536952893,1.6413923280884788,65.26181260937634,23.267729967912025,10,1.2055273825817553e-15,678.2944302856281,1.6285665818842014e-15,678.2944302856281,2.220446049250313e-13,0.0,0.11927827003754232,1.3038348828241686,0.11927827003754232
0.11730453638261816,300.28184980723336,-37.375144335345134,285.57405459862514,-47.354332277649945,247.66693664425844,-23.08853707170732,37.9071179543667,-24.265795205942624,58.93436683475834,21.153312914911034,226.6396877638668,-68.50764519256097,285.57405459862514,-47.354332277649945,14.707795208608216,9.979187942304813,0.0,0.0,90.25055688647444,-50.22047658979067,74.53375213189855,-19.764506280625277,61.85537874549382,1.4773376778549476,58.93436683475834,21.153312914911034,10,1.827302250042444e-15,625.4666433943966,2.053496586701506e-15,625.4666433943966,1.1102230246251565e-13,0.0,0.1151652262431444,1.2997218390297705,0.1151652262431444
0.1180198079459268,301.2725907867385,-36.216493705275894,286.0284838450474,-46.519772309077354,249.64130932101142,-23.15394818360045,36.38717452403597,-23.365824125476905,60.17026690127336,21.54680029990324,225.85821694377404,-68.06657260898058,286.0284838450474,-46.519772309077354,15.24410694169108,10.303278603801461,0.0,0.0,89.71587767059505,-49.92303913517868,74.12617937582228,-19.653831666034968,62.01615989735673,1.5102981922330656,60.17026690127336,21.54680029990324,10,1.1810702961495812e-15,629.54679207574,1.441807711511704e-15,629.54679207574,1.1102230246251565e-13,0.0,0.11105218244874626,1.2956087952353725,0.11105218244874626
0.11873507950923545,303.082048282851,-35.39930824028612,287.2939680450289,-46.02901864163027,252.2350260184504,-23.445641620172523,35.05894202657851,-22.58337702145775,61.399314662615296,21.933091043143065,225.89465338241362,-67.96210968477334,287.2939680450289,-46.02901864163027,15.788080237822108,10.629710401344152,0.0,0.0,89.62339706720488,-49.87307874187894,74.02421695353979,-19.626276801068624,62.24703936166896,1.5372458581742237,61.399314662615296,21.933091043143065,10,1.0464102762910162e-15,634.6772289156497,1.5266215721840697e-15,634.6772289156497,1.0408340855860843e-13,0.0,0.10693913865434834,1.2914957514409746,0.10693913865434834
0.1194503510725441,305.12134321405443,-34.69227167316864,288.78170327652083,-45.650642229676606,255.00167042758733,-23.823114550679577,33.7800328489335,-21.82752767899703,62.62170567237398,22.30499912535349,226.15999760414687,-67.95564135503007,288.78170327652083,-45.650642229676606,16.33963993753362,10.958370556507964,0.0,0.0,89.66035714832495,-49.895500916946915,74.00806657886679,-19.62231116798481,62.49157387695515,1.5621707299016308,62.62170567237398,22.30499912535349,10,1.1367111421739224e-15,641.0556183304725,2.279248911704195e-15,641.0556183304725,2.220446049250313e-13,0.0,0.1028260948599502,1.2873827076465765,0.1028260948599502
0.12016562263585275,301.61395173079575,-37.2793112221939,284.7152384718592,-48.568459754256736,251.82006960267236,-27.246411118482882,32.89516886918685,-21.322048635773854,57.36748284468337,20.375976479223183,227.34775562717581,-68.94443623347992,284.7152384718592,-48.568459754256736,16.898713258936542,11.289148532062843,0.0,0.0,90.78212350957762,-50.52276735209638,74.85885093034892,-19.853147096439386,61.70678118724928,1.4314782150558258,57.36748284468337,20.375976479223183,10,1.4787921065328387e-15,585.0153922960064,2.3088734790413302e-15,585.0153922960064,1.1102230246251565e-13,0.0,0.09871305106555206,1.2832696638521786,0.09871305106555206
0.1208808941991614,302.5432469910523,-36.136576277707896,285.0780171920089,-47.758512277111265,253.69798227173465,-27.3553910897287,31.380034920274227,-20.403121187382567,58.57582717336572,20.7505943216365,226.5021900186431,-68.50910659874769,285.0780171920089,-47.758512277111265,17.46522979904344,11.62193599940337,0.0,0.0,90.24280872053257,-50.22230117055558,74.45195884865652,-19.742812917710637,61.80742244945403,1.4560074895185124,58.57582717336572,20.7505943216365,10,9.696922677746135e-16,588.5062409088581,1.5451031458753994e-15,588.5062409088581,1.1102230246251565e-13,0.0,0.09460000727115414,1.2791566200577804,0.09460000727115414
0.12159616576247004,304.30380783721006,-35.33232755964529,286.26468630253487,-47.2889543653429,256.2323564177876,-27.701558452331824,30.03232988474724,-19.58739591301108,59.793787270155455,21.124070288821173,226.47089903237938,-68.41302465416405,286.26468630253487,-47.2889543653429,18.03912153467521,11.956626805697612,0.0,0.0,90.14867037386206,-50.17113856799152,74.35038372204173,-19.715615104986412,61.971844936475605,1.47372901881387,59.793787270155455,21.124070288821173,10,1.3280316345431134e-15,593.0273537425219,1.5805315468874743e-15,593.0273537425219,1.1102230246251565e-13,0.0,0.09048696347675622,1.2750435762633825,0.09048696347675622
0.12231143732577869,306.31324739127433,-34.630494157221115,287.6929245683155,-46.923611097988726,258.96665871045604,-28.130076314925333,28.72626585785946,-18.793534783063393,61.02898190873811,21.49191062478974,226.66394265957737,-68.41552172277842,287.6929245683155,-46.923611097988726,18.620322822958826,12.29311694076761,0.0,0.0,90.18412959349956,-50.19247009048709,74.3343624372969,-19.7119865748925,62.14545062878091,1.4889349426011549,61.02898190873811,21.49191062478974,10,1.2921624072502855e-15,598.8899903441609,1.3591589305192894e-15,598.8899903441609,1.1102230246251565e-13,0.0,0.0863739196823583,1.2709305324689844,0.0863739196823583
0.12302670888908733,303.8049841109749,-36.99863686427435,284.5962137095513,-49.629941367988096,256.84332072633146,-31.417125224366174,27.75289298321985,-18.21281614362192,56.47087005619872,19.74218315669001,228.12534365335256,-69.3721245246781,284.5962137095513,-49.629941367988096,19.20877040142356,12.631304503713741,0.0,0.0,91.30897195597535,-50.8214668679613,75.18887927501588,-19.943907390399644,61.62749242236132,1.3932497336828575,56.47087005619872,19.74218315669001,10,1.0434171979939366e-15,547.5484031666309,1.8057945083396707e-15,547.5484031666309,2.220446049250313e-13,0.0,0.08226087588796038,1.2668174886745864,0.08226087588796038
0.12374198045239598,304.71679749087,-35.877093745144656,284.91239410316695,-48.848183414439745,258.6692878546607,-31.57317162221844,26.24310624850625,-17.275011792221306,57.64929767702688,20.0884358450162,227.26309642614007,-68.93661925945597,284.91239410316695,-48.848183414439745,19.80440338770309,12.971089669295091,0.0,0.0,90.76516974697734,-50.518066707070645,74.7833475562908,-19.83413826479513,61.71457912287195,1.4155857124097935,57.64929767702688,20.0884358450162,10,9.502653232564945e-16,550.4221978325763,1.8272928758788877e-15,550.4221978325763,2.220446049250313e-13,0.0,0.07814783209356224,1.2627044448801885,0.07814783209356224
0.12445725201570464,306.4756911474504,-35.09251747608653,286.06852786859946,-48.40489213016431,261.1929872451608,-31.97979873318286,24.875540623438667,-16.425093396981453,58.84436736868989,20.436284344932993,227.2241604999096,-68.84117647509731,286.06852786859946,-48.40489213016431,20.40716327885092,13.312374654077786,0.0,0.0,90.6695218086825,-50.46579306070556,74.68306901339275,-19.807552594075105,61.87156967783431,1.4321691796833775,58.84436736868989,20.436284344932993,10,1.2201976703020318e-15,554.0766254461854,1.1108718174804857e-15,554.0766254461854,2.220446049250313e-13,0.0,0.0740347882991641,1.2585914010857904,0.0740347882991641
0.1251725235790133,308.5022742337929,-34.404672184243715,287.4852802835167,-48.05973586660659,263.94349923568797,-32.46765700059143,23.54178104782875,-15.592078866015157,60.06540779495111,20.783061972957455,227.41987248856557,-68.84279783956401,287.4852802835167,-48.05973586660659,21.01699395027618,13.65506368236287,0.0,0.0,90.70363533992118,-50.48612821392109,74.66824957213719,-19.80453430553399,62.04798757650723,1.4478646798910475,60.06540779495111,20.783061972957455,10,1.1857331753628457e-15,558.739411413436,1.7397818308913189e-15,558.739411413436,2.220446049250313e-13,0.0,0.06992174450476618,1.2544783572913925,0.06992174450476618
0.12588779514232193,306.5259420736695,-36.66148511976719,284.8921004193624,-50.66054807167251,262.4145140175259,-35.72773607684189,22.477586401836504,-14.932811994830615,55.75422365141755,19.110969402541613,229.13787676794485,-69.77151747421412,284.8921004193624,-50.66054807167251,21.63384165430713,13.99906295190532,0.0,0.0,91.83194612509051,-51.1170663641166,75.53028691289536,-20.03802819329639,61.77564372995898,1.3835770831988796,55.75422365141755,19.110969402541613,10,1.129584223895642e-15,513.3435057084362,9.108737340652342e-16,513.3435057084362,1.1102230246251565e-13,0.0,0.06580870071036804,1.2503653134969945,0.06580870071036804
0.12660306670563057,307.4364463283541,-35.56321779027168,285.1787913099639,-49.90749838970757,264.2048656887456,-35.93113101632983,20.973925621218314,-13.976367373377741,56.86401463113339,19.42121835258638,228.31477667883053,-69.32871674229393,285.1787913099639,-49.90749838970757,22.25765501839023,14.344280599435889,0.0,0.0,91.28391870165846,-50.81091444756291,75.1268466600544,-19.92900560516985,61.90401131711765,1.4112033104388289,56.86401463113339,19.42121835258638,10,1.0147125788468684e-15,515.8878246968297,1.4043285141078825e-15,515.8878246968297,2.220446049250313e-13,0.0,0.06169565691597012,1.2462522697025964,0.06169565691597012
0.1273183382689392,309.21179059452,-34.80026983585396,286.32340555158873,-49.49089650185053,266.7371744049333,-36.39950253741358,19.58623114665545,-13.091393964436946,58.001118050936405,19.73642263451695,228.32228750065238,-69.22731913636748,286.32340555158873,-49.49089650185053,22.888385042931237,14.690626665996566,0.0,0.0,91.18696637616151,-50.75767145505576,75.02871183586448,-19.90322234334065,62.10660928862638,1.4335746620289314,58.001118050936405,19.73642263451695,10,7.978494163346832e-16,519.0840956537465,1.8665827121356807e-15,519.0840956537465,1.1102230246251565e-13,0.0,0.0575826131215722,1.2421392259081985,0.0575826131215722
0.12803360983224787,311.27052602967785,-34.129508309904814,287.74454093089156,-49.16752137200584,269.52020222345163,-36.949399127136616,18.224338707439927,-12.218122244869221,59.17312442440999,20.05476350375521,228.5714165064816,-69.22228487576112,287.74454093089156,-49.16752137200584,23.525985098786315,15.038013062101022,0.0,0.0,91.21991857733971,-50.77713950138607,75.01604999724182,-19.90100918670864,62.33544793190007,1.4558638123336038,59.17312442440999,20.05476350375521,10,1.3678855002198422e-15,523.1261420436707,1.7973132268796013e-15,523.1261420436707,1.1102230246251565e-13,0.0,0.05346956932717406,1.2380261821138003,0.05346956932717406
0.1287488813955565,311.23886544572,-35.84487260941637,287.06845452131046,-51.23122614214691,270.00157028019726,-39.75438719713071,17.0668842411132,-11.476838945016198,56.59262868721515,18.89820083155329,230.47582583409533,-70.12942697370023,287.06845452131046,-51.23122614214691,24.170410924409563,15.386353532730542,0.0,0.0,92.35168641256766,-51.41006943245027,75.88499800347486,-20.135703164994027,62.23914141805279,1.4163456237440926,56.59262868721515,18.89820083155329,10,9.226009755686986e-16,481.9299929807866,1.3102091390415263e-15,481.9299929807866,1.1102230246251565e-13,0.0,0.04935652553277614,1.2339131383194024,0.04935652553277614
0.12946415295886515,312.3295706203959,-34.72834297909243,287.5079499977306,-50.463906601269144,271.9376364344765,-39.961788235617774,15.570313563254103,-10.50211836565137,57.78618314880387,19.21192554973605,229.72176684892673,-69.67583215100522,287.5079499977306,-50.463906601269144,24.821620622665314,15.73556362217671,0.0,0.0,91.79965985935713,-51.101354317393586,75.48554357514328,-20.027666452067038,62.43656341442629,1.4531886184554281,57.78618314880387,19.21192554973605,10,1.1809174853617848e-15,484.283353537289,1.644936408588988e-15,484.283353537289,1.1102230246251565e-13,0.0,0.04524348173837822,1.2298000945250045,0.04524348173837822
0.13017942452217382,314.3294325244058,-33.93998077836187,288.84985786709467,-50.02554141710252,274.6875563095633,-40.44428371987314,14.16230155753135,-9.581257697229375,59.03684330243191,19.538205168587098,229.81301456466275,-69.56374658568961,288.84985786709467,-50.02554141710252,25.479574657311083,16.08556063874065,0.0,0.0,91.70152543669236,-51.0472602949597,75.39282916665019,-20.003086815763623,62.718659961320206,1.486600525033687,59.03684330243191,19.538205168587098,10,8.391317837959745e-16,487.23391463864846,1.3483854001360951e-15,487.23391463864846,1.1102230246251565e-13,0.0,0.04113043794398008,1.2256870507306064,0.04113043794398008
0.13089469608548246,316.65663751664937,-33.233653402867844,290.5124016674905,-49.66991702216728,277.740492369531,-41.00327332081656,12.771909297959496,-8.666643701350722,60.35295862211751,19.876347526547242,230.15944304537302,-69.54626454871456,290.5124016674905,-49.66991702216728,26.144235849158854,16.43626361929944,0.0,0.0,91.73339603680472,-51.06595454621517,75.38693237995507,-20.002239241718712,63.039114628613234,1.5219292392193324,60.35295862211751,19.876347526547242,10,1.050643727638468e-15,490.9745941056169,1.1361779757887294e-15,490.9745941056169,2.220446049250313e-13,0.0,0.03701739414958216,1.2215740069362084,0.03701739414958216
