time_s,total_vertical_force_n,total_pitch_moment_nm,raw_bem_vertical_force_n,raw_bem_pitch_moment_nm,resolved_station_bem_vertical_force_n,resolved_station_bem_pitch_moment_nm,transom_extrapolation_vertical_force_n,transom_extrapolation_pitch_moment_nm,pre_chine_bem_vertical_force_n,pre_chine_bem_pitch_moment_nm,post_chine_bem_vertical_force_n,post_chine_bem_pitch_moment_nm,bem_vertical_force_n,bem_pitch_moment_nm,front_vertical_force_n,front_pitch_moment_nm,transom_vertical_force_n,transom_pitch_moment_nm,longitudinal_bin_aft_post_chine_vertical_force_n,longitudinal_bin_aft_post_chine_pitch_moment_nm,longitudinal_bin_middle_post_chine_vertical_force_n,longitudinal_bin_middle_post_chine_pitch_moment_nm,longitudinal_bin_forward_post_chine_vertical_force_n,longitudinal_bin_forward_post_chine_pitch_moment_nm,longitudinal_bin_pre_chine_vertical_force_n,longitudinal_bin_pre_chine_pitch_moment_nm,active_plane_count,potential_bvp_relative_residual,pressure_bvp_relative_residual,free_surface_pressure_max_abs_pa,contact_constraint_max_abs_m,aftmost_resolved_station_x_m,foremost_resolved_station_x_m,transom_coverage_gap_m
0.0,131.5114716407409,-2.7672162103693703,120.73280740657984,-8.945266830745929,120.73280740657984,-8.945266830745929,0.0,0.0,19.157850921945577,6.630377025483961,101.57495648463427,-15.575643856229895,120.73280740657984,-8.945266830745929,10.778664234161047,6.178050620376559,0.0,0.0,40.86227561883989,-14.510772450908876,33.542207585642146,-4.061141896824859,27.17047328015224,2.9962704915038394,19.157850921945577,6.630377025483961,11,1.0507005045907258e-15,1.3887158337047631e-15,1.1102230246251565e-13,8.326672684688674e-17,0.0,0.954,0.0
0.0027011237483419892,131.23897013940604,-2.303970401941723,119.40472848770888,-9.002152388420384,103.94947217208171,-2.4149663301784017,15.455256315627167,-6.587186058241983,19.06885728072767,6.50462303204975,100.33587120698121,-15.506775420470134,119.40472848770888,-9.002152388420384,11.834241651697164,6.698181986478661,0.0,0.0,40.49783327495295,-14.369887964548212,33.475062181095666,-4.047424453550143,26.362975750932584,2.9105369976282223,19.06885728072767,6.50462303204975,10,1.138790114471198e-15,1.3715556288031897e-15,1.1102230246251565e-13,0.0,0.08347499999999997,0.9420749999999999,0.08347499999999997
0.0054022474966839784,132.4173043538989,-1.7271891719067405,119.49206850379822,-8.950344950406098,106.24688016129846,-3.227841484437697,13.245188342499759,-5.722503465968401,18.776007119452224,6.329102084654167,100.716061384346,-15.279447035060272,119.49206850379822,-8.950344950406098,12.925235850100686,7.223155778499358,0.0,0.0,40.28715111659184,-14.29471081648432,33.40067847592904,-4.034978644877283,27.02823179182512,3.0502424263013292,18.776007119452224,6.329102084654167,10,9.324055718675127e-16,2.0261202420320984e-15,1.1102230246251565e-13,0.0,0.07155,0.9301499999999999,0.07155
0.008103371245025968,132.07107326657413,-1.5954594074724273,118.02131332263006,-9.346674820174144,106.97739700378145,-4.510571078027269,11.043916318848616,-4.836103742146875,17.661318101414782,5.878706807555604,100.35999522121529,-15.225381627729753,118.02131332263006,-9.346674820174144,14.049759943944068,7.7512154127017165,0.0,0.0,40.10532173591908,-14.229757298883477,33.31393989177493,-4.024450854436296,26.940733593521287,3.028826525590013,17.661318101414782,5.878706807555604,10,1.1075233655309348e-15,1.2780372594063057e-15,1.1102230246251565e-13,0.0,0.05962499999999982,0.9182249999999998,0.05962499999999982
0.010804494993367957,131.70503764995493,-1.5216527597680347,116.49907604423554,-9.802330636245081,107.64946006719616,-5.8751285694405695,8.849615977039377,-3.9272020668045116,16.4290191424702,5.39387333370114,100.07005690176534,-15.196203969946225,116.49907604423554,-9.802330636245081,15.205961605719404,8.280677876477046,0.0,0.0,39.96032420637898,-14.178136671594572,33.22792010820759,-4.015581973587874,26.881812587178764,2.997514675236216,16.4290191424702,5.39387333370114,10,1.0853668352539025e-15,1.5542116331050675e-15,8.326672684688674e-14,0.0,0.047699999999999854,0.9062999999999999,0.047699999999999854
0.013505618741709946,133.19589178608453,-0.9602267991364766,116.80386303308342,-9.77016164033482,110.1496700071389,-6.778012608952871,6.654193025944522,-2.992149031381949,16.552527120921614,5.323406118505873,100.2513359121618,-15.093567758840692,116.80386303308342,-9.77016164033482,16.39202875300111,8.809934841198343,0.0,0.0,39.84542579985187,-14.13740740494855,33.155199392137476,-4.008010102927081,27.250710720172464,3.051849749034943,16.552527120921614,5.323406118505873,10,1.3633414378556074e-15,1.4505950457790937e-15,2.220446049250313e-13,0.0,0.03577499999999989,0.8943749999999999,0.03577499999999989
0.016206742490051936,133.26132157907205,-0.7907584485082566,115.6551265550196,-10.128211852468958,111.20433320814138,-8.100537634296721,4.450793346878228,-2.027674218172237,15.59369386778328,4.9502285589796005,100.06143268723633,-15.078440411448554,115.6551265550196,-10.128211852468958,17.606195024052447,9.337453403960701,0.0,0.0,39.75571044754169,-14.105565451089818,33.101137829095336,-4.001282678154315,27.204584410599303,3.028407717795579,15.59369386778328,4.9502285589796005,10,1.0518994276011711e-15,2.092681459940342e-15,1.1102230246251565e-13,0.0,0.023849999999999927,0.88245,0.023849999999999927
0.018907866238393925,133.51196508144184,-0.6783852824541405,114.66522004938994,-10.540161749318536,112.431127147734,-9.509110372146097,2.2340929016559414,-1.0310513771724388,14.349750446717,4.483694297222451,100.31546960267293,-15.023856046540978,114.66522004938994,-10.540161749318536,18.84674503205189,9.861776466864395,0.0,0.0,39.685869699411086,-14.080703074814421,33.06671434055082,-3.995516601970964,27.562885562711035,3.052363630244404,14.349750446717,4.483694297222451,10,1.0642054006042562e-15,8.742112309369805e-16,1.1102230246251565e-13,0.0,0.011924999999999963,0.8705249999999999,0.011924999999999963
0.021608989986735914,129.1728380418267,-2.2294603008855614,118.5699141561261,-8.418776770769455,118.5699141561261,-8.418776770769455,0.0,0.0,19.141723633048095,6.691577896649511,99.428190523078,-15.110354667418964,118.5699141561261,-8.418776770769455,10.602923885700601,6.189316469883893,0.0,0.0,39.63165223771113,-14.061326036645788,33.04829453880256,-3.9908460171188267,26.74824374656432,2.9418173863456474,19.141723633048095,6.691577896649511,11,9.679244846140594e-16,2.037635914720961e-15,1.1102230246251565e-13,3.469446951953614e-18,0.0,0.9628909811763012,0.0
0.024310113735077903,129.95979873550365,-1.5717014460835346,118.34550113894987,-8.268232348157724,103.32546403360217,-1.8669425038765013,15.020037105347697,-6.401289844281223,19.839259962014776,6.864083178695449,98.50624117693508,-15.132315526853166,118.34550113894987,-8.268232348157724,11.61429759655379,6.69653090207419,0.0,0.0,39.49936082785251,-14.006542276361088,33.039000589352874,-3.987227155053075,25.9678797597297,2.861453904560996,19.839259962014776,6.864083178695449,10,1.1499627022053742e-15,1.4797015956127752e-15,1.1102230246251565e-13,0.0,0.08347499999999997,0.9509659811763013,0.08347499999999997
0.02701123748341989,130.6984639380146,-1.3378904759320216,118.04089453101817,-8.545463493687429,105.09684052805578,-2.9532634263217687,12.944054002962389,-5.59220006736566,18.907547635059196,6.445044590460123,99.13334689595898,-14.990508084147557,118.04089453101817,-8.545463493687429,12.657569406996437,7.207573017755407,0.0,0.0,39.49112335174978,-14.005205930932183,33.017485659323484,-3.984347627582741,26.62473788488572,2.9990454743673656,18.907547635059196,6.445044590460123,10,1.1380160384342594e-15,1.335031176509646e-15,1.6653345369377348e-13,0.0,0.07155,0.9390409811763012,0.07155
0.02971236123176188,130.43766369574556,-1.3258207325354618,116.70669067243759,-9.046615272583509,105.85876344238105,-4.296420326376044,10.847927230056541,-4.750194946207465,17.717251627549825,5.9639783766174315,98.98943904488777,-15.010593649200946,116.70669067243759,-9.046615272583509,13.730973023307975,7.720794540048047,0.0,0.0,39.487349505771974,-14.005397235935746,32.97373496323581,-3.9816789073123413,26.52835457587998,2.976482494047138,17.717251627549825,5.9639783766174315,10,1.0936257515132736e-15,1.7987368148421824e-15,5.551115123125783e-14,0.0,0.05962499999999982,0.9271159811763012,0.05962499999999982
0.03241348498010387,131.01329073628102,-1.045658879017294,116.18049472552934,-9.280285283904142,107.4510579644013,-5.406445962879758,8.729436761128042,-3.873839321024384,17.304092987775114,5.759463179756835,98.87640173775422,-15.03974846366097,116.18049472552934,-9.280285283904142,14.832796010751665,8.234626404886848,0.0,0.0,39.48625366625605,-14.006493956125064,32.922115164510075,-3.9789726431550623,26.4680329069881,2.945718135619156,17.304092987775114,5.759463179756835,10,1.1770610317823674e-15,2.5789410658260717e-15,1.1102230246251565e-13,0.0,0.047699999999999854,0.9151909811763013,0.047699999999999854
0.03511460872844586,131.9199587185538,-0.780901070093952,115.95857415770782,-9.528479830267813,109.37181016712849,-6.566659507326911,6.586763990579328,-2.961820322940902,16.764009312559033,5.4568884956717305,99.19456484514878,-14.985368325939536,115.95857415770782,-9.528479830267813,15.961384560845993,8.74757876017386,0.0,0.0,39.486846983551494,-14.008112813197101,32.87765175923573,-3.976293939723231,26.830066102361556,2.999038426980796,16.764009312559033,5.4568884956717305,10,1.0524084343197908e-15,1.3292046577230133e-15,5.551115123125783e-14,0.0,0.03577499999999989,0.9032659811763013,0.03577499999999989
0.03781573247678785,131.9816741613646,-0.6893183178869382,114.86652615442904,-9.947558938567546,110.44810798560829,-7.934635393105978,4.41841816882075,-2.012923545461568,15.747808502132687,5.061996131952529,99.11871765229635,-15.00955507052008,114.86652615442904,-9.947558938567546,17.115148006935563,9.258240620680608,0.0,0.0,39.49012192515695,-14.010398370155375,32.847903618687866,-3.973592205466396,26.780692108451536,2.9744355051016953,15.747808502132687,5.061996131952529,10,1.4540668026815593e-15,1.4368634381797356e-15,1.1102230246251565e-13,0.0,0.023849999999999927,0.8913409811763012,0.023849999999999927
0.040516856225129835,132.24979758288214,-0.6278521033882924,113.95723449950901,-10.393131294947082,111.73406299793083,-9.367120276051821,2.2231715015781788,-1.026011018895261,14.524430229907509,4.598000973263214,99.4328042696015,-14.991132268210286,113.95723449950901,-10.393131294947082,18.292563083373118,9.76527919155879,0.0,0.0,39.495771264990445,-14.013248178814182,32.83555676578959,-3.971267861446824,27.101476238821473,2.993383772050713,14.524430229907509,4.598000973263214,10,1.2726672275520908e-15,8.676208795440065e-16,5.551115123125783e-14,0.0,0.011924999999999963,0.8794159811763013,0.011924999999999963
0.04321797997347183,129.08790821644428,-1.872099716862957,118.71203880293899,-8.03883460665621,118.71203880293899,-8.03883460665621,0.0,0.0,20.07401719586413,7.057601188136859,98.63802160707485,-15.096435794793063,118.71203880293899,-8.03883460665621,10.375869413505278,6.166734889793252,0.0,0.0,39.50353682443047,-14.01660898170552,32.83832520581458,-3.969663725055412,26.29615957682982,2.889836911967862,20.07401719586413,7.057601188136859,11,1.1271398807142057e-15,2.1217631774976234e-15,5.551115123125783e-14,3.469446951953614e-18,0.0,0.9718485922635547,0.0
0.04591910372181382,129.11242866469397,-1.5037016470851583,117.77401140701605,-8.161209429019344,102.77495074912466,-1.7688047649760605,14.999060657891391,-6.3924046640432834,19.941993730318615,6.9802472404558475,97.83201767669743,-15.141456669475193,117.77401140701605,-8.161209429019344,11.33841725767791,6.657507781934186,0.0,0.0,39.4235252837273,-13.981017388715927,32.850329011079,-3.9688882200183784,25.55816338189115,2.8084489392591028,19.941993730318615,6.9802472404558475,10,1.0125907050537924e-15,1.4212325510845036e-15,5.551115123125783e-14,0.0,0.08347499999999997,0.9599235922635547,0.08347499999999997
0.048620227470155805,129.86406617333904,-1.3083613650684693,117.53440962154046,-8.459569845419956,104.59172557799852,-2.8679171656199856,12.942684043541945,-5.591652679799971,19.02448228737824,6.565438742622975,98.50992733416223,-15.025008588042933,117.53440962154046,-8.459569845419956,12.329656551798575,7.151208480351487,0.0,0.0,39.45826140109653,-13.995315314642294,32.85140332563066,-3.9687413009086363,26.200262607435047,2.9390480275079938,19.02448228737824,6.565438742622975,10,1.042631903066593e-15,1.4985693524555182e-15,2.220446049250313e-13,0.0,0.07154999999999978,0.9479985922635548,0.07154999999999978
0.0513213512184978,129.66232275039013,-1.3207832550302214,116.31432575735191,-8.967104175751203,105.45531985710798,-4.212027841785435,10.859005900243929,-4.755076333965768,17.88028458394387,6.094924620039855,98.43404117340805,-15.062028795791065,116.31432575735191,-8.967104175751203,13.347996993038235,7.6463209207209815,0.0,0.0,39.491772617684695,-14.009030052180888,32.83218985048634,-3.9687805590776826,26.110078705236997,2.91578181546752,17.88028458394387,6.094924620039855,10,8.929201807492162e-16,1.7240468397614227e-15,5.551115123125783e-14,0.0,0.05962499999999982,0.9360735922635547,0.05962499999999982
0.05402247496683978,130.50824630646486,-1.0841518573092408,116.11632838612364,-9.225562923334927,107.36928809411523,-5.3438946374546745,8.747040292008407,-3.8816682858802523,17.398874017694922,5.810423114190911,98.71745436842872,-15.035986037525838,116.11632838612364,-9.225562923334927,14.39191792034121,8.141411066025686,0.0,0.0,39.523612929552826,-14.022026775402432,32.8057224463687,-3.968798748464902,26.388118992507202,2.9548394863414895,17.398874017694922,5.810423114190911,10,1.1479233619345732e-15,1.3552530069471733e-15,1.1102230246251565e-13,0.0,0.047699999999999854,0.9241485922635547,0.047699999999999854
0.056723598715181775,131.24620713219218,-0.8142087091598853,115.78623513045532,-9.449334551557158,109.18033545698451,-6.47890193795191,6.605899673470816,-2.9704326136052472,17.032990646467738,5.6139198650511775,98.7532444839876,-15.063254416608345,115.78623513045532,-9.449334551557158,15.459972001736872,8.635125842397272,0.0,0.0,39.553807387206476,-14.034295364715861,32.785518307548635,-3.9688588798081668,26.413918789232483,2.9398998279156867,17.032990646467738,5.6139198650511775,10,1.418413907456371e-15,1.2331331417269136e-15,1.1102230246251565e-13,0.0,0.03577499999999989,0.9122235922635547,0.03577499999999989
0.05942472246352376,131.33094247719163,-0.7456825001951994,114.78015382407014,-9.871874273800387,110.34535688444457,-7.851486591569213,4.434796939625571,-2.020387682231174,16.066816390204615,5.230075167416295,98.71333743386552,-15.101949441216675,114.78015382407014,-9.871874273800387,16.55078865312149,9.126191773605187,0.0,0.0,39.5841027573888,-14.046263100263715,32.77829035631291,-3.9688876164672813,26.350944320163812,2.913201275514316,16.066816390204615,5.230075167416295,10,9.886566302201797e-16,2.0681793338231163e-15,1.1102230246251565e-13,0.0,0.023849999999999927,0.9002985922635547,0.023849999999999927
0.06212584621186575,131.64521022561863,-0.7016280618075648,113.98213303682827,-10.31504139169629,111.74909597353655,-9.28447703760348,2.233037063291718,-1.0305643540928102,14.903378514426496,4.778728179758187,99.0787545224018,-15.093769571454494,113.98213303682827,-10.31504139169629,17.663077188790343,9.613413329888726,0.0,0.0,39.61484496283762,-14.058064475133493,32.786599121875156,-3.9692440654014884,26.677310437689012,2.933538969080489,14.903378514426496,4.778728179758187,10,1.2049570082321192e-15,1.4375032837902591e-15,5.551115123125783e-14,0.0,0.011924999999999963,0.8883735922635547,0.011924999999999963
0.06482696996020774,127.87547233865146,-2.166244949080113,117.77419051895217,-8.273797647975279,117.7741905189522,-8.273797647975286,-2.842170943040401e-14,7.105427357601002e-15,19.408269694817992,6.936412847286425,98.36592082413416,-15.210210495261702,117.77419051895217,-8.273797647975279,10.10128181969929,6.107552698895166,0.0,0.0,39.64629955594134,-14.06983665823694,32.80868385919894,-3.9702513722168167,25.910937408993874,2.8298775351920575,19.408269694817992,6.936412847286425,11,8.818123555058564e-16,1.2679982372121904e-15,1.1102230246251565e-13,3.469446951953614e-18,-2.220446049250313e-16,0.9805962751374658,0.0
0.06752809370854973,129.88537565692346,-1.3517219041513409,118.87348390107306,-7.9304941482487195,103.796651968774,-1.5048362680923049,15.076831932299058,-6.425657880156415,20.303744083853545,7.162070727163432,98.56973981721953,-15.092564875412151,118.87348390107306,-7.9304941482487195,11.011891755850394,6.578772244097379,0.0,0.0,39.588635981320785,-14.042113205651376,32.83956623647177,-3.9720318903855745,26.141537599426968,2.921580220624808,20.303744083853545,7.162070727163432,10,1.1084123802330756e-15,1.807254751352046e-15,1.1102230246251565e-13,0.0,0.08347499999999997,0.9686712751374658,0.08347499999999997
0.07022921745689172,129.64208468155977,-1.3642920595831445,117.69367462975244,-8.416477647474501,104.67616250383617,-2.7924312059917398,13.01751212591627,-5.624046441482761,19.304116811548177,6.7292129578471656,98.38955781820425,-15.145690605321661,117.69367462975244,-8.416477647474501,11.94841005180732,7.052185587891357,0.0,0.0,39.64541465384791,-14.064167285047777,32.8604380925335,-3.974425043288697,25.88370507182286,2.892901723014811,19.304116811548177,6.7292129578471656,10,1.047591535831624e-15,1.3465140956988315e-15,1.6653345369377348e-13,0.0,0.07154999999999978,0.9567462751374658,0.07154999999999978
0.07293034120523371,129.34745954295312,-1.4505950971117496,116.43799224627388,-8.977023174894242,105.50998377953437,-4.191694851968016,10.928008466739513,-4.785328322926226,18.080754341673174,6.213632262881989,98.3572379046007,-15.190655437776222,116.43799224627388,-8.977023174894242,12.909467296679242,7.526428077782493,0.0,0.0,39.70063224714454,-14.08549970079977,32.86194915898661,-3.9770262238633247,25.794656498469546,2.871870486886868,18.080754341673174,6.213632262881989,10,1.4723148045914028e-15,1.256962029892094e-15,1.1102230246251565e-13,0.0,0.05962499999999982,0.9448212751374658,0.05962499999999982
0.0756314649535757,129.30899494875746,-1.446115371526549,115.41521957881756,-9.446332326119638,106.6077590081029,-5.537833786260528,8.807460570714653,-3.90849853985911,17.050366710342004,5.792433966623776,98.36485286847554,-15.238766292743406,115.41521957881756,-9.446332326119638,13.89377536993989,8.000216954593089,0.0,0.0,39.75397757921529,-14.10602739715008,32.85622885311062,-3.9796334021792443,25.754646436149628,2.8468945065859153,17.050366710342004,5.792433966623776,10,1.0745270187781427e-15,1.0290543434854384e-15,1.1102230246251565e-13,0.0,0.047699999999999854,0.9328962751374659,0.047699999999999854
0.07833258870191769,131.04508641006257,-0.9417603547713274,116.14495642507205,-9.414109685953086,109.4898855182129,-6.421559601054419,6.655070906859152,-2.9925500848986673,17.402384346663094,5.799742475838881,98.74257207840895,-15.213852161791959,116.14495642507205,-9.414109685953086,14.900129984990523,8.472349331181759,0.0,0.0,39.80556907710213,-14.125776131322343,32.85615884338715,-3.9822827020179687,26.08084415791967,2.8942066715483534,17.402384346663094,5.799742475838881,10,1.07885224062001e-15,1.7542412908917046e-15,1.1102230246251565e-13,0.0,0.03577499999999989,0.9209712751374658,0.03577499999999989
0.08103371245025967,131.47888575270682,-0.9157847176711371,115.55147278278285,-9.857484642076535,111.08135549409347,-7.821003937497544,4.47011728868938,-2.0364807045789917,16.246831164684743,5.328882501946264,99.30464161809812,-15.186367144022803,115.55147278278285,-9.857484642076535,15.927412969923964,8.941699924405398,0.0,0.0,39.85725369251814,-14.145206195474579,32.86820802116739,-3.9848505412330155,26.579179904412573,2.943689592684798,16.246831164684743,5.328882501946264,10,1.182443679333091e-15,1.0461047026998018e-15,1.1102230246251565e-13,0.0,0.023849999999999927,0.9090462751374658,0.023849999999999927
0.08373483619860167,131.27205710248143,-0.8982571097826,114.29746281243375,-10.305475667148215,112.0455091412961,-9.266180928540003,2.251953671137656,-1.0392947386082128,15.348816494829505,4.976308249509741,98.94864631760424,-15.281783916657961,114.29746281243375,-10.305475667148215,16.974594290047683,9.407218557365615,0.0,0.0,39.90939357544912,-14.164462443427995,32.895086383389156,-3.9876657766045422,26.14416635876595,2.870344303374589,15.348816494829505,4.976308249509741,10,9.652041378311443e-16,1.6842607939392417e-15,5.551115123125783e-14,0.0,0.011924999999999963,0.8971212751374658,0.011924999999999963
0.08643595994694366,127.7903871612369,-2.283132867365704,118.00488598789576,-8.294050752208598,118.00488598789582,-8.294050752208626,-5.684341886080802e-14,2.842170943040401e-14,19.727766352282526,7.109623974604196,98.27711963561325,-15.403674726812795,118.00488598789576,-8.294050752208598,9.78550117334113,6.010917884842894,0.0,0.0,39.9622537292569,-14.183686598609643,32.93544394441566,-3.9910454475530077,25.37942196194069,2.7710573193498504,19.727766352282526,7.109623974604196,11,1.5181930456747452e-15,1.995473007945481e-15,5.551115123125783e-14,3.469446951953614e-18,-2.220446049250313e-16,0.9888360645857697,0.0
0.08913708369528564,129.44879343868556,-1.7184118042791416,118.80599200416081,-8.178552677689417,103.59112879628698,-1.6939954485101936,15.214863207873833,-6.484557229179224,20.022546057646345,7.093237646953369,98.78344594651446,-15.27179032464279,118.80599200416081,-8.178552677689417,10.642801434524742,6.460140873410276,0.0,0.0,39.925763185273674,-14.163309232053098,32.98486728134407,-3.995133057044436,25.872815479896726,2.886651964454744,20.022546057646345,7.093237646953369,10,1.0337190172116407e-15,8.690979980334766e-16,6.245004513516506e-14,0.0,0.08347499999999997,0.9769110645857697,0.08347499999999997
0.09183820744362764,130.00567544346097,-1.505818761390561,118.48193388209681,-8.416855281462354,105.33856641170351,-2.7383942042328826,13.1433674703933,-5.678461077229471,19.614877793683142,6.893911591771298,98.86705608841368,-15.310766873233653,118.48193388209681,-8.416855281462354,11.523741561364172,6.911036520071793,0.0,0.0,40.00408297475184,-14.192867304410372,33.02627903223821,-3.999812352772919,25.836694081423623,2.881912783949641,19.614877793683142,6.893911591771298,10,1.525627193873459e-15,1.7287489462910028e-15,5.551115123125783e-14,0.0,0.07154999999999978,0.9649860645857697,0.07154999999999978
0.09453933119196962,129.93374600223933,-1.5745293528193551,117.50654082507447,-8.936933804012597,106.46739007702051,-4.102915934103109,11.039150748053956,-4.834017869909488,18.50348092058398,6.415520428295498,99.0030599044905,-15.352454232308094,117.50654082507447,-8.936933804012597,12.427205177164867,7.362404451193242,0.0,0.0,40.08087718453251,-14.221716548051038,33.05310442915933,-4.004751450382614,25.86907829079866,2.8740137661255503,18.50348092058398,6.415520428295498,10,1.3164318231553768e-15,1.3781195005041455e-15,1.1102230246251565e-13,0.0,0.05962499999999982,0.9530610645857698,0.05962499999999982
0.09724045494031161,129.9764293108837,-1.5865230126499972,116.62426486951206,-9.399646156880458,107.72289768649465,-5.449465267743058,8.901367183017413,-3.9501808891373997,17.513542077301913,6.003840736466522,99.11072279221014,-15.403486893346969,116.62426486951206,-9.399646156880458,13.352164441371634,7.8131231442304605,0.0,0.0,40.15582897713869,-14.249773158951012,33.07482088302726,-4.009773764200947,25.8800729320442,2.8560600298049845,17.513542077301913,6.003840736466522,10,1.4606789823658162e-15,1.0529201323084807e-15,1.1102230246251565e-13,0.0,0.047700000000000076,0.9411360645857697,0.047700000000000076
0.0999415786886536,130.84350983185408,-1.4066677612065277,116.5458283502444,-9.6688148644323,109.81659604326362,-6.642913694393073,6.729232306980791,-3.0259011700392264,17.082355093538496,5.732474498303514,99.4634732567059,-15.401289362735799,116.5458283502444,-9.6688148644323,14.297681481609674,8.262147103225772,0.0,0.0,40.228994230024384,-14.277047125354212,33.10028684824846,-4.0148635957254175,26.13419217843306,2.890621358343827,17.082355093538496,5.732474498303514,10,1.0816688790084504e-15,1.5948441389937104e-15,1.6653345369377348e-13,0.0,0.03577499999999989,0.9292110645857697,0.03577499999999989
0.1026427024369956,132.08632730837704,-1.1220754355645859,116.82341772020764,-9.830579284403548,112.30138139584791,-7.770444677215323,4.522036324359732,-2.0601346071882247,16.74085970556197,5.545284021860614,100.08255801464567,-15.375863306264165,116.82341772020764,-9.830579284403548,15.262909588169387,8.708503848838962,0.0,0.0,40.302022693348405,-14.303948277456007,33.13333623543498,-4.019824255384329,26.647199085862287,2.947909226576165,16.74085970556197,5.545284021860614,10,1.3480665898116907e-15,1.2460836569253462e-15,1.1102230246251565e-13,0.0,0.023849999999999927,0.9172860645857697,0.023849999999999927
0.10534382618533758,132.04228238439134,-1.1071986400779377,115.79518820571565,-10.258489379930012,113.51604143134898,-9.206644727357236,2.279146774366666,-1.0518446525727754,15.891741386218238,5.203487334164207,99.9034468194974,-15.461976714094213,115.79518820571565,-10.258489379930012,16.24709417867568,9.151290739852074,0.0,0.0,40.37522713993968,-14.330603512014491,33.175805640203606,-4.024880166905264,26.35241403935412,2.8935069648255407,15.891741386218238,5.203487334164207,10,9.59497498334756e-16,1.1222815118187682e-15,1.1102230246251565e-13,0.0,0.011924999999999963,0.9053610645857697,0.011924999999999963
0.10804494993367957,128.77604554123192,-2.431370781654543,119.33842948948428,-8.309810431415272,119.33842948948428,-8.309810431415272,0.0,0.0,20.103242260821823,7.288811121721954,99.23518722866245,-15.598621553137232,119.33842948948428,-8.309810431415272,9.437616051747648,5.878439649760729,0.0,0.0,40.44885048615247,-14.357143055609036,33.22700037094692,-4.030284454133101,25.559336371563067,2.7888059566049037,20.103242260821823,7.288811121721954,11,1.2720240656272335e-15,1.6943606121996896e-15,6.938893903907228e-14,3.469446951953614e-18,0.0,0.9962612934095568,0.0
0.11074607368202156,128.37203292995702,-2.3981841709619705,118.12990350973203,-8.702314661596319,102.71766055408065,-2.133609735192195,15.41224295565138,-6.5687049264041235,19.281795946749902,6.940032220183323,98.84810756298214,-15.642346881779645,118.12990350973203,-8.702314661596319,10.242129420224996,6.304130490634348,0.0,0.0,40.43265341371985,-14.343918915864405,33.28404986567921,-4.03617689724682,25.131404283583066,2.7377489313315824,19.281795946749902,6.940032220183323,10,1.1673524338656254e-15,2.1488668503543815e-15,5.551115123125783e-14,0.0,0.08347499999999997,0.9843362934095568,0.08347499999999997
0.11344719743036355,130.76846823455702,-1.7468245288077,119.69987644963764,-8.47804614062116,106.37971337520774,-2.723189763252236,13.3201630744299,-5.754856377368924,19.968182745381732,7.064170964346541,99.73169370425592,-15.542217104967705,119.69987644963764,-8.47804614062116,11.06859178491939,6.73122161181346,0.0,0.0,40.53134979515255,-14.380703887007847,33.33293574110398,-4.042490214477921,25.86740816799939,2.880976996518065,19.968182745381732,7.064170964346541,10,1.5119134913218484e-15,1.615607826779643e-15,1.6653345369377348e-13,0.0,0.07154999999999978,0.9724112934095568,0.07154999999999978
0.11614832117870554,130.78917837937277,-1.814978429723162,118.87302046639417,-8.973660531509545,107.68026790855829,-4.072375331667011,11.192752557835874,-4.901285199842533,18.932944984539077,6.6087014499281445,99.94007548185509,-15.582361981437693,118.87302046639417,-8.973660531509545,11.916157912978596,7.158682101786383,0.0,0.0,40.628159173850804,-14.416650530317165,33.36846731487141,-4.048965339704978,25.94344899313288,2.883253888584452,18.932944984539077,6.6087014499281445,10,1.1150234915540196e-15,1.4375852184134783e-15,5.551115123125783e-14,0.0,0.05962499999999982,0.9604862934095568,0.05962499999999982
0.11884944492704752,130.88286222696175,-1.8446161940219712,118.098788167534,-9.430170371220136,109.06958072097228,-5.423255641942312,9.029207446561713,-4.006914729277824,17.96783236451634,6.201642407799671,100.13095580301764,-15.631812779019803,118.098788167534,-9.430170371220136,12.784074059427756,7.585554177198165,0.0,0.0,40.72280761319287,-14.451685941632228,33.39977815147504,-4.055473985702015,26.00837003834973,2.875347148314434,17.96783236451634,6.201642407799671,10,9.978378746305558e-16,1.5260993899467927e-15,1.1102230246251565e-13,0.0,0.047700000000000076,0.9485612934095569,0.047700000000000076
0.12155056867538952,130.81167308033147,-1.9351786463883354,117.139994674234,-9.946128391529065,110.31120764355548,-6.875460549826137,6.8287870306785265,-3.070667841702928,16.87612952353899,5.746079686980649,100.26386515069501,-15.692208078509722,117.139994674234,-9.946128391529065,13.67167840609747,8.01094974514073,0.0,0.0,40.815362582314016,-14.485823682253063,33.43561035313088,-4.062029000263632,26.012892215250112,2.855644604006974,16.87612952353899,5.746079686980649,10,1.0291608080549477e-15,1.0126010672277855e-15,1.1102230246251565e-13,0.0,0.03577499999999989,0.9366362934095568,0.03577499999999989
0.1242516924237315,132.43349183538936,-1.516323317009208,117.85509053261873,-9.95037015973768,113.26426496471328,-7.858896780028502,4.590825567905455,-2.0914733797091785,17.199784824651797,5.744785937347846,100.65530570796693,-15.695156097085523,117.85509053261873,-9.95037015973768,14.578401302770637,8.434046842728472,0.0,0.0,40.90740262066047,-14.519456336638946,33.480066853194074,-4.068468959495242,26.267836234112394,2.8927691990486615,17.199784824651797,5.744785937347846,10,9.005085449717911e-16,1.7236127738740441e-15,5.551115123125783e-14,0.0,0.023849999999999927,0.9247112934095568,0.023849999999999927
0.1269528161720735,133.2018391200743,-1.4133238860429298,117.69807379995005,-10.267409855570193,115.38333832449567,-9.199140746029073,2.314735475454384,-1.06826910954112,16.391855445421342,5.410686137839872,101.30621835452874,-15.67809599341009,117.69807379995005,-10.267409855570193,15.503765320124254,8.854085969527263,0.0,0.0,40.99921443512209,-14.55270280571525,33.53524440597485,-4.075036593637137,26.77175951343179,2.9496434059423002,16.391855445421342,5.410686137839872,10,1.241405908855599e-15,1.5568957012909566e-15,1.6653345369377348e-13,0.0,0.011924999999999963,0.9127862934095569,0.011924999999999963
0.1296539399204155,130.54987803491957,-2.6288218760475175,121.48054396824313,-8.343321774084465,121.48054396824315,-8.34332177408448,-2.842170943040401e-14,1.4210854715202004e-14,20.43301450103636,7.441252723490955,101.04752946720676,-15.78457449757541,121.48054396824313,-8.343321774084465,9.069334066676456,5.714499898036948,0.0,0.0,41.091021711405695,-14.585686827535259,33.600531842785784,-4.081993414044597,26.355975913015282,2.8831057440044425,20.43301450103636,7.441252723490955,11,1.5209495904990715e-15,1.1311523525775963e-15,1.1102230246251565e-13,3.469446951953614e-18,-2.220446049250313e-16,1.002573382830226,0.0
0.13235506366875746,129.87105363567642,-2.6645908010590222,120.04753599601291,-8.780798427135828,104.37802231296816,-2.102413501127508,15.669513683044755,-6.67838492600832,19.62353430992063,7.0945939492828565,100.42400168609228,-15.875392376418688,120.04753599601291,-8.780798427135828,9.823517639663509,6.116207626076806,0.0,0.0,41.09464964489338,-14.579668070069292,33.673092891401765,-4.089478333518677,25.656259149797155,2.7937540271692765,19.62353430992063,7.0945939492828565,10,1.2070672292831377e-15,1.1311329142429128e-15,1.1102230246251565e-13,0.0,0.08347499999999997,0.9906483828302259,0.08347499999999997
0.13505618741709946,130.90407565816858,-2.2985053403682576,120.30550922332215,-8.81781521997683,106.75845124126091,-2.964916227613422,13.547057982061233,-5.852898992363407,20.016984414556163,7.142817280664602,100.288524808766,-15.960632500641427,120.30550922332215,-8.81781521997683,10.59856643484643,6.519309879608572,0.0,0.0,41.20996900962516,-14.6222924716648,33.74774760350209,-4.097473834301503,25.33080819563874,2.7591338053248773,20.016984414556163,7.142817280664602,10,1.0987630994242406e-15,2.2949349193290477e-15,5.551115123125783e-14,0.0,0.07154999999999978,0.9787233828302259,0.07154999999999978
0.13775731116544146,131.9296985084461,-2.170487744115472,120.53578803211904,-9.093429750329513,109.14867651261406,-4.107029450669181,11.387111519504984,-4.986400299660332,19.307283837130782,6.775202447255134,101.22850419498826,-15.868632197584652,120.53578803211904,-9.093429750329513,11.39391047632706,6.922942006214041,0.0,0.0,41.32321720117002,-14.664024958173123,33.80899769552645,-4.1057662208439005,26.096289298291794,2.901158981432369,19.307283837130782,6.775202447255134,10,1.1767217851623387e-15,1.119843287496261e-15,5.551115123125783e-14,0.0,0.05962499999999982,0.9667983828302258,0.05962499999999982
0.14045843491378343,132.05733005208253,-2.214647483081734,119.8482596403484,-9.540951986276355,110.65936675419246,-5.463171793746028,9.18889288615594,-4.0777801925303265,18.369721151516323,6.374814363893844,101.47853848883207,-15.915766350170198,119.8482596403484,-9.540951986276355,12.20907041173413,7.326304503194621,0.0,0.0,41.43412353172436,-14.70479201833614,33.85806468208763,-4.11409928428475,26.18635027502009,2.903124952450691,18.369721151516323,6.374814363893844,10,1.0746410592957265e-15,1.5812778560527391e-15,1.6653345369377348e-13,0.0,0.047700000000000076,0.9548733828302259,0.047700000000000076
0.14315955866212543,132.0515133919683,-2.3177659131000894,119.00785624890992,-10.046425090414132,112.05617352440152,-6.920495343725094,6.951682724508402,-3.125929746689039,17.30453692464955,5.926171587883475,101.70331932426038,-15.972596678297613,119.00785624890992,-10.046425090414132,13.04365714305841,7.728659177314043,0.0,0.0,41.54268262199021,-14.74458789499785,33.90517226900653,-4.122386027918937,26.25546443326363,2.8943772446191787,17.30453692464955,5.926171587883475,10,1.105653445568122e-15,1.2074900493024247e-15,1.1102230246251565e-13,0.0,0.03577499999999989,0.9429483828302259,0.03577499999999989
0.14586068241046743,132.7038233801303,-2.176750871722838,118.80645207248124,-10.306076112681026,114.13161853732933,-8.176330842679057,4.674833535151905,-2.129745270001969,16.936805818432013,5.734083950890411,101.86964625404923,-16.04016006357145,118.80645207248124,-10.306076112681026,13.897371307649054,8.129325240958188,0.0,0.0,41.650187032271496,-14.783731897153993,33.958095251902805,-4.130482671562637,26.26136396987493,2.874054505145182,16.936805818432013,5.734083950890411,10,1.0198909675792118e-15,9.226913026535452e-16,5.551115123125783e-14,0.0,0.023849999999999927,0.9310233828302259,0.023849999999999927
0.1485618061588094,133.9153036868256,-1.9267907256380745,119.1453010674736,-10.454466083562487,116.78752773393971,-9.366334700915658,2.357773333533885,-1.0881313826468286,16.82118401610852,5.590451570354562,102.32411705136509,-16.044917653917057,119.1453010674736,-10.454466083562487,14.770002619352018,8.527675357924412,0.0,0.0,41.756921537670834,-14.822333177047911,34.022050802610266,-4.138642940553838,26.545144711083992,2.916058463684694,16.82118401610852,5.590451570354562,10,1.5077228558735347e-15,1.124935130452224e-15,5.551115123125783e-14,0.0,0.011924999999999963,0.9190983828302259,0.011924999999999963
0.1512629299071514,132.3895002833604,-2.9480043552370176,123.69503967120156,-8.474183766838244,123.69503967120158,-8.474183766838259,-2.842170943040401e-14,1.4210854715202004e-14,20.717378465024485,7.567540754943979,102.97766120617706,-16.04172452178222,123.69503967120156,-8.474183766838244,8.694460612158839,5.526179411601227,0.0,0.0,41.863139102589244,-14.86051291358516,34.09861379863444,-4.147174973329699,27.015908304953385,2.965963365132632,20.717378465024485,7.567540754943979,11,1.2711820719451585e-15,1.7430833603485522e-15,5.551115123125783e-14,3.469446951953614e-18,-2.220446049250313e-16,1.007501530433261,0.0
0.1539640536554934,131.80810141048235,-3.010340878716595,122.40549615287324,-8.914952261199588,106.42779063393579,-2.105173138740099,15.977705518937455,-6.809779122459489,19.927848207203226,7.225764222419588,102.47764794567001,-16.140716483619176,122.40549615287324,-8.914952261199588,9.402605257609109,5.904611382482993,0.0,0.0,41.8845055690622,-14.861204718996024,34.186211517603574,-4.156291675609259,26.40693085900424,2.8767799109861016,19.927848207203226,7.225764222419588,10,1.1431608994105924e-15,2.0833627787338908e-15,1.1102230246251565e-13,0.0,0.08347499999999997,0.9955765304332611,0.08347499999999997
0.15666517740383537,131.98736142015775,-2.9532357700270557,121.85622857104727,-9.237929791268527,108.0392001030307,-3.268368834383132,13.817028468016574,-5.969560956885395,19.703102512868277,7.02692503204346,102.15312605817898,-16.264854823311985,121.85622857104727,-9.237929791268527,10.131132849110484,6.284694021241472,0.0,0.0,42.01236373567557,-14.90830356053668,34.28118212281336,-4.166056861267013,25.859580199690036,2.8095055984917128,19.703102512868277,7.02692503204346,10,1.2189176025772807e-15,1.6824077835240593e-15,6.245004513516506e-14,0.0,0.07155,0.9836515304332611,0.07155
0.15936630115217737,132.3907583694139,-2.8376434473459566,121.51101806540989,-9.503361067329003,109.89417021617743,-4.416347822894679,11.616847849232457,-5.087013244434324,19.370234505671238,6.843386566730949,102.14078355973865,-16.34674763405995,121.51101806540989,-9.503361067329003,10.879740304004024,6.665717619983046,0.0,0.0,42.13783016372336,-14.954389636315767,34.376013594138385,-4.176390939377409,25.626939801876908,2.7840329416332246,19.370234505671238,6.843386566730949,10,8.403795067160071e-16,1.5605735274309599e-15,1.1102230246251565e-13,0.0,0.05962499999999982,0.9717265304332611,0.05962499999999982
0.16206742490051934,133.5436404954404,-2.688982517290663,121.89542922668747,-9.73601050444929,112.519001419136,-5.575002328640551,9.376427807551465,-4.161008175808739,18.721091471089842,6.520470628002503,103.17433775559762,-16.256481132451793,121.89542922668747,-9.73601050444929,11.648211268752942,7.047027987158627,0.0,0.0,42.26068612862913,-14.999402891487671,34.45639861538892,-4.187046245998776,26.457253011579567,2.929968005034656,18.721091471089842,6.520470628002503,10,9.405168496988377e-16,1.728385283178633e-15,1.1102230246251565e-13,0.0,0.047700000000000076,0.9598015304332612,0.047700000000000076
0.16476854864886134,133.58437493040694,-2.8015170420768056,121.14795976531963,-10.229539458845764,114.05286278544912,-7.039119540370109,7.095096979870505,-3.190419918475655,17.690646564409896,6.082197136959744,103.45731320090972,-16.3117365958055,121.14795976531963,-10.229539458845764,12.436415165087324,7.428022416768958,0.0,0.0,42.38100901884455,-15.043359894495264,34.52701728282727,-4.197754453080897,26.54928689923789,2.929377751770655,17.690646564409896,6.082197136959744,10,1.0988072257636857e-15,1.2970476017931109e-15,1.1102230246251565e-13,0.0,0.03577499999999989,0.9478765304332611,0.03577499999999989
0.16746967239720334,133.5544882789073,-2.939513166688177,120.31018214347775,-10.747658811691721,115.5379270534679,-8.573530134407726,4.77225509000985,-2.1741286772839956,16.60676455980122,5.6290117626389415,103.70341758367653,-16.376670574330653,120.31018214347775,-10.747658811691721,13.244306135429534,7.8081456450035445,0.0,0.0,42.50025630131707,-15.086623337021956,34.59610032380313,-4.208164950980233,26.607060958556325,2.9181177136715313,16.60676455980122,5.6290117626389415,10,9.730011789699025e-16,1.389406717534599e-15,6.938893903907228e-14,0.0,0.023849999999999927,0.9359515304332611,0.023849999999999927
0.1701707961455453,135.431081211906,-2.468618217079431,121.35915931524877,-10.655504021628964,118.95178380368935,-9.544480795510182,2.4073755115594224,-1.1110232261187818,17.180899303318228,5.736524320768199,104.17826001193055,-16.392028342397168,121.35915931524877,-10.655504021628964,14.071921896657207,8.186885804549533,0.0,0.0,42.61874354796329,-15.129315309358471,34.67114008771154,-4.218408714597585,26.88837637625572,2.955695681558886,17.180899303318228,5.736524320768199,10,1.0072865666298058e-15,1.1269391232288413e-15,1.1102230246251565e-13,0.0,0.011924999999999963,0.9240265304332611,0.011924999999999963
0.1728719198938873,133.6934617220509,-3.467145732207655,125.36546500755725,-8.789880198049566,125.36546500755725,-8.789880198049566,0.0,0.0,20.96066796491965,7.664970206976758,104.4047970426376,-16.454850405026313,125.36546500755725,-8.789880198049566,8.32799671449366,5.322734465841911,0.0,0.0,42.73672689737092,-15.171563373218778,34.75627588630484,-4.228753909368974,26.911794258961823,2.9454668775614383,20.96066796491965,7.664970206976758,11,9.205502122918392e-16,1.4115530590122376e-15,5.551115123125783e-14,3.469446951953614e-18,0.0,1.0108232340317356,0.0
0.1755730436422293,134.20672188092442,-3.4113248556477345,125.21073689796398,-9.091028562024363,108.88829021559792,-2.134270844273992,16.322446682366063,-6.956757717750371,20.19452185084141,7.3297609521997185,105.01621504712256,-16.420789514224076,125.21073689796398,-9.091028562024363,8.995984982960431,5.679703706376628,0.0,0.0,42.77125985092255,-15.176916733757064,34.852303153267734,-4.239456857819015,27.392652042932276,2.9955840773520013,20.19452185084141,7.3297609521997185,10,1.1702994202843674e-15,1.5414199138947754e-15,4.163336342344337e-14,0.0,0.08347499999999997,0.9988982340317356,0.08347499999999997
0.17827416739057128,133.50611717963,-3.6463821322688217,123.82167849558627,-9.68519628311823,109.70482179353358,-3.586073479797818,14.116856702052687,-6.099122803320412,19.19539729042595,6.887318177469426,104.62628120516032,-16.572514460587662,123.82167849558627,-9.68519628311823,9.684438684043712,6.038814150849409,0.0,0.0,42.9100829903789,-15.22769329609453,34.95740973825962,-4.25068392323622,26.758788476521794,2.9058627587430905,19.19539729042595,6.887318177469426,10,1.3617862611579615e-15,1.5474023538576586e-15,5.551115123125783e-14,0.0,0.07155,0.9869732340317356,0.07155
0.18097529113891328,134.35863086367516,-3.3586172100249145,123.96532719221348,-9.758110187639303,112.09497853636425,-4.560080068645291,11.870348655849227,-5.198030118994012,19.58147479530896,6.9342822578367365,104.38385239690452,-16.692392445476038,123.96532719221348,-9.758110187639303,10.39330367146167,6.399492977614389,0.0,0.0,43.04689121848223,-15.277604143054479,35.068143806834385,-4.262478817226217,26.26881737158789,2.847690514804663,19.58147479530896,6.9342822578367365,10,1.1239174489281666e-15,9.347946648770094e-16,5.551115123125783e-14,0.0,0.05962499999999982,0.9750482340317357,0.05962499999999982
0.18367641488725528,135.40028400101292,-3.2271805314499176,124.27767742174794,-9.988392833786968,114.69550438987035,-5.736078032756332,9.582173031877588,-4.252314801030636,19.021896415570787,6.637733557736357,105.25578100617714,-16.62612639152332,124.27767742174794,-9.988392833786968,11.122606579264978,6.76121230233705,0.0,0.0,43.181416653416484,-15.32657527487736,35.17437176092955,-4.274754881916955,26.899992591831115,2.975203765270983,19.021896415570787,6.637733557736357,10,1.019593804037747e-15,1.6062751334928775e-15,6.245004513516506e-14,0.0,0.047699999999999854,0.9631232340317356,0.047699999999999854
0.18637753863559725,135.4316140908466,-3.3513319438100666,123.55916057936757,-10.474817092332586,116.30752080022542,-7.214005201384538,7.2516397791421525,-3.260811890948048,18.022634767171724,6.2095474321653406,105.53652581219583,-16.684364524497916,123.55916057936757,-10.474817092332586,11.872453511479028,7.123485148522519,0.0,0.0,43.31334059661185,-15.374525407405798,35.26557840454888,-4.2872749388558145,26.9576068110351,2.9774358217636934,18.022634767171724,6.2095474321653406,10,1.4177887714408205e-15,2.753524763073051e-15,1.1102230246251565e-13,0.0,0.03577499999999989,0.9511982340317358,0.03577499999999989
0.18907866238393925,135.4337771039351,-3.4994511514361015,122.79074842924689,-10.985312596417657,117.9126233632101,-8.762952260082699,4.878125066036787,-2.222360336334958,16.95962141092175,5.762695554520809,105.83112701832513,-16.748008150938468,122.79074842924689,-10.985312596417657,12.643028674688233,7.4858614449815555,0.0,0.0,43.443201789044686,-15.421583668214408,35.348477624297686,-4.299717513171899,27.039447604982758,2.9732930304478398,16.95962141092175,5.762695554520809,10,9.072370298119581e-16,1.020269594903426e-15,5.551115123125783e-14,0.0,0.023849999999999927,0.9392732340317356,0.023849999999999927
0.19177978613228122,136.34890835527628,-3.3006022145496914,122.91431539463389,-11.14852627183457,120.45324070425494,-10.012720505257121,2.4610746903789504,-1.1358057665774481,16.826304316758208,5.6724344829607665,106.08801107787568,-16.82096075479533,122.91431539463389,-11.14852627183457,13.434592960642378,7.847924057284878,0.0,0.0,43.57257949657164,-15.468153485186749,35.431059068337944,-4.311749103466912,27.08437251296609,2.958941833858333,16.826304316758208,5.6724344829607665,10,1.199592152990707e-15,1.0632050460824375e-15,5.551115123125783e-14,0.0,0.011924999999999963,0.9273482340317357,0.011924999999999963
0.19448090988062322,135.75543975727456,-3.9875173517221754,127.77047000493141,-9.102192688246006,127.77047000493141,-9.102192688246006,0.0,0.0,21.156183176880297,7.733993840852984,106.6142868280511,-16.83618652909898,127.77047000493141,-9.102192688246006,7.984969752343135,5.114675336523831,0.0,0.0,43.70162326790099,-15.514327376667485,35.52033325803782,-4.32356202566667,27.3923303021123,3.001702873235166,21.156183176880297,7.733993840852984,11,9.997997414091364e-16,1.2379116410542869e-15,5.551115123125783e-14,3.469446951953614e-18,0.0,1.0123829568489668,0.0
0.19718203362896522,135.8125793090551,-4.010085528972326,127.1926584330264,-9.463012757417303,110.49521056669944,-2.346427904684539,16.697447866326954,-7.116584852732764,20.42143126324059,7.407656554948478,106.77122716978579,-16.870669312365756,127.1926584330264,-9.463012757417303,8.619920876028708,5.4529272284449775,0.0,0.0,43.74867303726381,-15.52423390544076,35.61978815272073,-4.3354287081511735,27.40276597980125,2.9889933012261736,20.42143126324059,7.407656554948478,10,9.482341630709437e-16,9.53648533019286e-16,5.551115123125783e-14,0.0,0.08347499999999997,1.0004579568489669,0.08347499999999997
0.1998831573773072,136.23163282633544,-4.122494334363183,126.95570682317133,-9.916494166521503,112.51215373510286,-3.6762272474654765,14.44355308806847,-6.240266919056026,19.449887694657505,6.974798629849454,107.50581912851382,-16.891292796370955,126.95570682317133,-9.916494166521503,9.275926003164127,5.7939998321583195,0.0,0.0,43.89848445353107,-15.578888589499643,35.72971973320146,-4.347598088046581,27.87761494178128,3.0351938811752657,19.449887694657505,6.974798629849454,10,1.1721123306514966e-15,1.4656054093385102e-15,5.551115123125783e-14,0.0,0.07155,0.9885329568489669,0.07155
0.2025842811256492,136.78657790784726,-3.9091429692085207,126.83342176402952,-10.046577627613694,114.68652989570973,-4.727452712908601,12.146891868319798,-5.3191249147050925,19.785142012318,7.007558175317497,107.04827975171153,-17.0541358029312,126.83342176402952,-10.046577627613694,9.953156143817726,6.137434658405173,0.0,0.0,44.04604474955636,-15.632559704425445,35.84801322192471,-4.360225929121562,27.154221780230458,2.938649830615807,19.785142012318,7.007558175317497,10,1.1406471895286714e-15,1.6246195483243526e-15,1.1102230246251565e-13,0.0,0.05962499999999982,0.9766079568489668,0.05962499999999982
0.2052854048739912,136.6124552008875,-4.014831116027611,125.9605991110077,-10.49763845919631,116.15383477010286,-6.145658589043116,9.806764340904834,-4.351979870153194,19.05439590034434,6.670487364344817,106.90620321066336,-17.168125823541125,125.9605991110077,-10.49763845919631,10.651856089879807,6.482807343168699,0.0,0.0,44.19113220085396,-15.685184741440096,35.97085582788855,-4.373349002067039,26.74421518192085,2.8904079199660124,19.05439590034434,6.670487364344817,10,1.0301933423821736e-15,1.4218411396033125e-15,5.551115123125783e-14,0.0,0.047699999999999854,0.9646829568489668,0.047699999999999854
0.20798652862233316,137.5816127033584,-3.9533232058553525,126.20926975546121,-10.78304697713591,118.78673189447034,-7.445389550346924,7.422537860990872,-3.3376574267889865,18.325067686774577,6.313402191372592,107.88420206868663,-17.0964491685085,126.20926975546121,-10.78304697713591,11.372342947897177,6.829723771280558,0.0,0.0,44.33346948669644,-15.736694662906045,36.08429795355639,-4.38684950132496,27.466434628433817,3.027094995722498,18.325067686774577,6.313402191372592,10,1.0263216903987952e-15,1.5999628569982047e-15,1.1102230246251565e-13,0.0,0.03577499999999989,0.9527579568489669,0.03577499999999989
0.21068765237067516,137.58298534290248,-4.1106873627324285,125.46798069508371,-11.28850361594536,120.47433016376112,-9.013513083017386,4.9936505313225865,-2.2749905329279727,17.282137465469802,5.872931640103705,108.1858432296139,-17.16143525604906,125.46798069508371,-11.28850361594536,12.115004647818774,7.177816253212931,0.0,0.0,44.47274976290332,-15.787020531895255,36.18432970650004,-4.400503998942721,27.52876376021053,3.026089274788921,17.282137465469802,5.872931640103705,10,1.0276398536402595e-15,1.36211228750059e-15,5.551115123125783e-14,0.0,0.023849999999999927,0.9408329568489668,0.023849999999999927
0.21338877611901716,138.2694861885214,-4.023229129613028,125.38918775641298,-11.549968888746385,122.86957535231954,-10.38714757295459,2.5196124040934365,-1.1628213157917955,16.906146986514656,5.682767992471389,108.48304076989831,-17.232736881217768,125.38918775641298,-11.549968888746385,12.880298432108415,7.526739759133357,0.0,0.0,44.610050246962146,-15.836432363305509,36.278178232295105,-4.413933251631327,27.594812290641066,3.017628733719061,16.906146986514656,5.682767992471389,10,1.7317051240896837e-15,1.2600940740788635e-15,1.1102230246251565e-13,0.0,0.011924999999999963,0.9289079568489669,0.011924999999999963
0.21608989986735913,138.01803010010283,-4.5714971247214375,130.33883392783252,-9.484115168185149,130.33883392783252,-9.484115168185149,0.0,0.0,21.316982472027767,7.769606163480747,109.02185145580476,-17.2537213316659,130.33883392783252,-9.484115168185149,7.679196172270322,4.912618043463711,0.0,0.0,44.74643538823683,-15.885228985375758,36.37355663117232,-4.426976581251148,27.90185943639562,3.0584842349610035,21.316982472027767,7.769606163480747,11,1.1310045431722791e-15,1.780488617625384e-15,5.551115123125783e-14,3.469446951953614e-18,0.0,1.0121061037810783,0.0
0.21879102361570113,138.12145044129642,-4.577818573577129,129.83239899156018,-9.81338984331395,111.00995622548604,-1.8728728538882606,18.822442766074147,-7.940516989425689,20.625195088368343,7.459362766592212,109.20720390319184,-17.272752609906163,129.83239899156018,-9.81338984331395,8.28905144973623,5.235571269736821,0.0,0.0,44.77007689241728,-15.884611916232949,36.47623130651704,-4.439843663350299,27.96089570425752,3.0517029696770788,20.625195088368343,7.459362766592212,10,1.1489015086979321e-15,1.3139884055967807e-15,5.551115123125783e-14,0.0,0.09236598117630113,1.0001811037810784,0.09236598117630113
0.22149214736404313,138.62475206298288,-4.6887180297792,129.70376491591412,-10.250877090674123,113.15901869771027,-3.174866053977972,16.544746218203855,-7.076011036696151,19.676545878189735,7.035960851454618,110.02721903772436,-17.28683794212872,129.70376491591412,-10.250877090674123,8.92098714706875,5.562159060894923,0.0,0.0,44.93108484118189,-15.943484846913243,36.58861681314281,-4.4527904294428815,28.50751738339967,3.109437334227392,19.676545878189735,7.035960851454618,10,1.3210225722518055e-15,1.855617536586593e-15,1.1102230246251565e-13,0.0,0.08044098117630116,0.9882561037810782,0.08044098117630116
0.2241932711123851,138.47145561475057,-4.744826501210598,128.8960818818181,-10.636839324171554,114.67310742590645,-4.470730686626922,14.222974455911654,-6.166108637544632,19.19416888447931,6.80992703646265,109.70191299733881,-17.446766360634207,128.8960818818181,-10.636839324171554,9.575373732932452,5.892012822960956,0.0,0.0,45.08901740645838,-16.001083080657082,36.710327004298364,-4.466038289214264,27.902568586582053,3.0203550092371376,19.19416888447931,6.80992703646265,10,8.541976868403244e-16,1.4688029596015148e-15,5.551115123125783e-14,0.0,0.0685159811763012,0.9763311037810783,0.0685159811763012
0.2268943948607271,139.0403090526007,-4.6278147871600135,128.7876607765909,-10.852602428205309,116.9311997514953,-5.6429728432110835,11.856461025095612,-5.209629584994225,19.22678006428955,6.717117821155796,109.56088071230134,-17.569720249361097,128.7876607765909,-10.852602428205309,10.252648276009783,6.224787641045295,0.0,0.0,45.243705171662114,-16.057347392867925,36.83895314824291,-4.479717441597085,27.478222392396308,2.967344585103927,19.22678006428955,6.717117821155796,10,1.0580402813423124e-15,1.1508715385653279e-15,1.1102230246251565e-13,0.0,0.056590981176301236,0.9644061037810783,0.056590981176301236
0.22959551860906907,140.02664810528861,-4.5673918671225735,129.07333513930533,-11.127550521422265,119.62872166266604,-6.922148134194984,9.44461347663929,-4.205402387227281,18.554765172168466,6.378375219223813,110.51856996713687,-17.505925740646077,129.07333513930533,-11.127550521422265,10.953312965983278,6.560158654299691,0.0,0.0,45.39494187333912,-16.112219657264582,36.968406855028334,-4.493842155608267,28.155221238769414,3.100136072226766,18.554765172168466,6.378375219223813,10,8.777253686970455e-16,1.0906071062718955e-15,1.1102230246251565e-13,0.0,0.04466598117630127,0.9524811037810783,0.04466598117630127
0.23229664235741107,140.05159163704863,-4.729781754762426,128.37365800735927,-11.627599252112432,121.38674437632784,-8.475333772513189,6.9869136310314275,-3.1522654795992437,17.52433875069992,5.9432533489990735,110.84931925665936,-17.570852601111504,128.37365800735927,-11.627599252112432,11.677933629689363,6.897817497350006,0.0,0.0,45.54247318766156,-16.165638838094694,37.08455986128344,-4.508248503300653,28.22228620771435,3.103034740283844,17.52433875069992,5.9432533489990735,10,9.042887756794106e-16,1.7525539152404183e-15,5.551115123125783e-14,0.0,0.03274098117630131,0.9405561037810783,0.03274098117630131
0.23499776610575307,140.07069423407333,-4.899017720686547,127.64355598999067,-12.136486530584442,123.16063716430472,-10.087417462652496,4.482918825685957,-2.0490690679319457,16.464649697210298,5.50514069947559,111.17890629278037,-17.641627230060024,127.64355598999067,-12.136486530584442,12.427138244082649,7.237468809897895,0.0,0.0,45.686160175228544,-16.217580040257168,37.19063488089694,-4.522738220063628,28.30211123665488,3.0986910302607757,16.464649697210298,5.50514069947559,10,1.124812249694229e-15,1.1693946365586868e-15,1.1102230246251565e-13,0.0,0.020815981176301124,0.9286311037810783,0.020815981176301124
0.23769888985409504,139.65279663607924,-5.399704336174458,132.2305910351306,-10.12585804397051,130.298331946882,-9.231182770422237,1.9322590882485997,-0.8946752735482733,20.76882083063576,7.595746570117987,111.46177020449485,-17.721604614088506,132.2305910351306,-10.12585804397051,7.422205600948654,4.726153707796052,0.0,0.0,45.827702889701,-16.26847140107301,37.292973215276206,-4.536866000733339,28.341094099517647,3.0837327877178478,20.76882083063576,7.595746570117987,11,1.1663796258926806e-15,1.1521368049411622e-15,5.551115123125783e-14,3.469446951953614e-18,0.008890981176301382,1.010005988784192,0.008890981176301382
0.24040001360243704,140.65846848400497,-5.172322405815379,132.6431513630596,-10.20993101709385,111.5929349665923,-1.4214660192922466,21.05021639646729,-8.788464997801604,20.742378076894123,7.47081818280431,111.90077328616545,-17.680749199898166,132.6431513630596,-10.20993101709385,8.015317120945397,5.037608611278472,0.0,0.0,45.83502353231155,-16.260959360038278,37.39759120196952,-4.550599033697775,28.668158551884375,3.130809193837889,20.742378076894123,7.47081818280431,10,1.150388475507504e-15,1.0768734739209801e-15,1.1102230246251565e-13,0.0,0.1013235922635547,0.9980809887841917,0.1013235922635547
0.24310113735077904,140.632446747338,-5.358695442728151,132.0005390077127,-10.712287720882344,113.25617191628534,-2.7775705404338424,18.74436709142735,-7.9347171804485015,19.813404522996873,7.0555434258372305,112.18713448471581,-17.767831146719573,132.0005390077127,-10.712287720882344,8.631907739625314,5.353592278154193,0.0,0.0,46.00112260152556,-16.32172875776444,37.50829683355686,-4.564133269312713,28.677715049633395,3.118030880357578,19.813404522996873,7.0555434258372305,10,1.031151836740521e-15,8.746021840387382e-16,5.551115123125783e-14,0.0,0.08939859226355473,0.9861559887841918,0.08939859226355473
0.245802261099121,141.05105403417406,-5.50578780419467,131.77853102376446,-11.179589835271429,115.38456581767339,-4.14426291221357,16.393965206091067,-7.035326923057859,18.800093894147082,6.611466575885496,112.97843712961739,-17.79105641115693,131.77853102376446,-11.179589835271429,9.272523010409605,5.673802031076759,0.0,0.0,46.16395656700274,-16.381155592343585,37.626278329318026,-4.57769007958121,29.188202233296625,3.1677892607678597,18.800093894147082,6.611466575885496,10,1.3778142107242339e-15,1.6916759057637198e-15,5.551115123125783e-14,0.0,0.07747359226355477,0.9742309887841918,0.07747359226355477
0.248503384847463,141.7832865837465,-5.241908876313999,131.84551826424052,-11.239858063102766,117.84717606472425,-5.15074860831205,13.998342199516273,-6.089109454790716,19.308735343466076,6.719444592502066,112.53678292077444,-17.95930265560483,131.84551826424052,-11.239858063102766,9.937768319505988,5.997949186788767,0.0,0.0,46.32332849884666,-16.439165297634393,37.75060331691716,-4.591449743859775,28.46285110501063,3.0713123858893407,19.308735343466076,6.719444592502066,10,1.2371766528326718e-15,1.4431614421160408e-15,6.938893903907228e-14,0.0,0.06554859226355458,0.9623059887841918,0.06554859226355458
0.251204508595805,141.54299273390754,-5.405489599856594,130.91468526267394,-11.731245324267412,119.3577789786883,-6.636354782330315,11.55690628398564,-5.094890541937097,18.471511592261518,6.344080229354875,112.44317367041243,-18.075325553622285,130.91468526267394,-11.731245324267412,10.62830747123361,6.3257557244108185,0.0,0.0,46.4790420478321,-16.495695419426013,37.87879576856928,-4.605505322036988,28.08533585401105,3.0258751878407075,18.471511592261518,6.344080229354875,10,1.152041905827807e-15,1.657995753624021e-15,1.1102230246251565e-13,0.0,0.05362359226355462,0.9503809887841917,0.05362359226355462
0.253905632344147,142.50006821583972,-5.376483110517823,131.15520694228755,-12.033434133380908,122.08606910688398,-7.981928710025194,9.069137835403566,-4.051505423355714,17.663905849336018,5.967794675306145,113.49130109295152,-18.001228808687046,131.15520694228755,-12.033434133380908,11.344861273552173,6.656951022863085,0.0,0.0,46.630858397893036,-16.550682508949045,37.999582713320805,-4.6198132454482685,28.860859981737704,3.169266945710252,17.663905849336018,5.967794675306145,10,1.1183728628416055e-15,1.2420400198327457e-15,1.1102230246251565e-13,0.0,0.04169859226355466,0.9384559887841918,0.04169859226355466
0.25660675609248895,142.4953274289927,-5.54937811222891,130.40712130615438,-12.540646779800824,123.87253175445855,-9.582846840083285,6.534589551695831,-2.957799939717539,16.607441479409143,5.532128189626974,113.79967982674525,-18.072774969427805,130.40712130615438,-12.540646779800824,12.088206122838326,6.991268667571914,0.0,0.0,46.77849235420258,-16.604060111877033,38.106734712012134,-4.634186340962165,28.914452760530537,3.1654714834113946,16.607441479409143,5.532128189626974,10,9.897896717605959e-16,1.0269746491592864e-15,5.551115123125783e-14,0.0,0.029773592263554916,0.9265309887841919,0.029773592263554916
0.259307879840831,142.1332678098485,-6.017997760903456,134.91075439335486,-10.580968561657784,130.95786739942028,-8.768336555961213,3.952886993934584,-1.812632005696571,20.81868705346371,7.570062720780642,114.09206733989114,-18.151031282438417,134.91075439335486,-10.580968561657784,7.222513416493623,4.562970800754328,0.0,0.0,46.92218779606612,-16.655895745076702,38.20765677489895,-4.648430904938946,28.96222276892608,3.1532953675772326,20.81868705346371,7.570062720780642,11,1.0790351628761253e-15,1.3248163253704812e-15,1.1102230246251565e-13,3.469446951953614e-18,0.01784859226355473,1.0061825788921495,0.01784859226355473
0.26200900358917295,143.29328001822958,-5.849209353913099,135.48599013818074,-10.716047927120108,134.16226563189193,-10.101176837106394,1.323724506288812,-0.6148710900137146,20.81121426499448,7.45165279467837,114.67477587318629,-18.167700721798496,135.48599013818074,-10.716047927120108,7.807289880048829,4.866838573207009,0.0,0.0,47.06378476657184,-16.706659849896223,38.308977085401935,-4.662174916584474,29.302014021212514,3.2011340446822008,20.81121426499448,7.45165279467837,11,1.0024657012308463e-15,1.5617828674963172e-15,5.551115123125783e-14,0.0,0.005923592263554767,0.9942575788921495,0.005923592263554767
0.2647101273375149,143.14578126337096,-5.964560266701423,134.72851906282526,-11.140724443717012,113.76339632047488,-2.3554236580826213,20.965122742350374,-8.78530078563439,19.893246327815575,7.042135790993068,114.83527273500968,-18.182860234710077,134.72851906282526,-11.140724443717012,8.417262200545705,5.176164177015589,0.0,0.0,47.07216527338534,-16.69935806887472,38.41634018087186,-4.675567895771492,29.346767280752474,3.1920657299361395,19.893246327815575,7.042135790993068,10,1.647753755523051e-15,9.90979517026003e-16,1.1102230246251565e-13,0.0,0.09814627513746577,0.9823325788921496,0.09814627513746577
0.26741125108585695,143.6148872342826,-6.1081606934857025,134.56175727601882,-11.598849595225168,115.97560041613829,-3.7023158090325055,18.586156859880532,-7.896533786192663,18.88080633149773,6.601048607490506,115.6809509445211,-18.19989820271568,134.56175727601882,-11.598849595225168,9.053129958263796,5.490688901739466,0.0,0.0,47.23840807517934,-16.7601613922709,38.53239989784508,-4.68886281270759,29.91014297149667,3.249126002262816,18.88080633149773,6.601048607490506,10,1.479929809463749e-15,8.354526189406495e-16,5.551115123125783e-14,0.0,0.08622127513746558,0.9704075788921495,0.08622127513746558
0.2701123748341989,144.39803196522337,-5.854750651374261,134.68238548418628,-11.664909917210387,118.52076043491454,-4.704170619626822,16.16162504927175,-6.960739297583565,19.35943606367549,6.6986379663584295,115.3229494205108,-18.363547883568806,134.68238548418628,-11.664909917210387,9.715646481037084,5.810159265836126,0.0,0.0,47.40070954581641,-16.819378919250546,38.65704756678935,-4.7022946753532615,29.265192307905046,3.1581257110349856,19.35943606367549,6.6986379663584295,10,1.1256558977259436e-15,1.7009398829603711e-15,1.1102230246251565e-13,0.0,0.07429627513746584,0.9584825788921496,0.07429627513746584
0.2728134985825409,144.1420705139875,-6.023835830800037,133.7364530129807,-12.158159803299448,120.04550565281403,-6.181411678724842,13.69094736016666,-5.9767481245746055,18.52896226681527,6.327600420791123,115.20749074616542,-18.485760224090562,133.7364530129807,-12.158159803299448,10.405617501006809,6.134323972499411,0.0,0.0,47.55886237218479,-16.876935401801326,38.788052897860986,-4.716013084037385,28.860575476119635,3.1071882617481474,18.52896226681527,6.327600420791123,10,1.4342436604095578e-15,1.162577842533223e-15,1.1102230246251565e-13,0.0,0.062371275137465876,0.9465575788921496,0.062371275137465876
0.2755146223308829,145.11105509720986,-5.992759509984582,133.98715529318505,-12.455690440411871,122.8135352621108,-7.512287317128987,11.17362003107425,-4.943403123282884,17.728410914160417,5.95529805481136,116.25874437902462,-18.410988495223222,133.98715529318505,-12.455690440411871,11.123899804024813,6.462930930427289,0.0,0.0,47.7126470798285,-16.93276398176522,38.9186590342248,-4.730042028766329,29.627438264971317,3.2518175153083266,17.728410914160417,5.95529805481136,10,1.0027220227726381e-15,1.2316983495059887e-15,5.551115123125783e-14,0.0,0.05044627513746569,0.9346325788921495,0.05044627513746569
0.2782157460792249,145.1072884725868,-6.166913010031688,133.23588860391197,-12.962637349120989,124.62667541652786,-9.103078189440389,8.609213187384114,-3.8595591596806003,16.663911357478728,5.519337639138692,116.57197724643322,-18.481974988259665,133.23588860391197,-12.962637349120989,11.871399868674816,6.795724339089301,0.0,0.0,47.861800835501846,-16.98679653765138,39.03477588630969,-4.744208677409729,29.675400524621686,3.2490302268014464,16.663911357478728,5.519337639138692,10,9.683595555220065e-16,2.1315155248777506e-15,1.1102230246251565e-13,0.0,0.03852127513746573,0.9227075788921495,0.03852127513746573
0.28091686982756686,144.78724230003974,-6.610543474057338,137.7019133915334,-11.038921046119881,131.70454163869488,-8.314836413714708,5.997371752838518,-2.724084632405173,20.83332186809837,7.520805175685467,116.86859152343501,-18.55972622180534,137.7019133915334,-11.038921046119881,7.085328908506332,4.428377572062543,0.0,0.0,48.0060255139982,-17.038965228698427,39.14069780132389,-4.758346473698861,29.721868208112927,3.237585480591944,20.83332186809837,7.520805175685467,11,1.2164901297444049e-15,1.4867143741003521e-15,1.1102230246251565e-13,3.469446951953614e-18,0.026596275137465764,1.0008132365183926,0.026596275137465764
0.2836179935759089,145.9502698731839,-6.444590110786413,138.28030119190328,-11.173057766148283,134.94248632404017,-9.637195277022414,3.337814867863102,-1.5358624891258685,20.824296092842275,7.402237619093935,117.456005099061,-18.575295385242228,138.28030119190328,-11.173057766148283,7.669968681280632,4.72846765536187,0.0,0.0,48.146235920862786,-17.08950102258811,39.24365517510434,-4.7721954600713605,30.06611400309388,3.286401097417242,20.824296092842275,7.402237619093935,11,9.778054888180381e-16,1.6354100299257172e-15,1.1102230246251565e-13,0.0,0.014671275137465578,0.9888882365183925,0.014671275137465578
0.28631911732425086,145.93738030034064,-6.616725954335433,137.65558059162333,-11.651672484699034,137.02525114157683,-11.35788385769478,0.6303294500465029,-0.293788627004254,19.90377762195984,6.99445602500783,117.75180296966347,-18.646128509706855,137.65558059162333,-11.651672484699034,8.281799708717296,5.034946530363602,0.0,0.0,48.28357379172356,-17.13872000431992,39.349080354518016,-4.785617659158818,30.119148823421902,3.2782091537718774,19.90377762195984,6.99445602500783,11,1.2027126156898716e-15,2.1300003394011456e-15,5.551115123125783e-14,0.0,0.0027462751374658367,0.9769632365183926,0.0027462751374658367
0.28902024107259283,145.6521953268309,-6.768028289776066,136.7305369359769,-12.115608433305226,116.00149198202173,-3.3920814897709946,20.729044953955153,-8.723526943534232,18.882623128887126,6.553600071418428,117.84791380708975,-18.669208504723656,136.7305369359769,-12.115608433305226,8.921658390854022,5.34758014352916,0.0,0.0,48.291230448455714,-17.13136458935603,39.46061991567956,-4.798817017013372,30.096063442954474,3.2609731016457495,18.882623128887126,6.553600071418428,10,1.1553921262070053e-15,1.5917620159061338e-15,5.551115123125783e-14,0.0,0.09446106458576975,0.9650382365183927,0.09446106458576975
0.29172136482093486,147.61311240428418,-6.379231236677446,138.02268298318535,-12.045363013535152,119.74844709045306,-4.24848682737062,18.274235892732293,-7.796876186164532,19.343571709229415,6.643972471624094,118.67911127395593,-18.689335485159255,138.02268298318535,-12.045363013535152,9.590429421098836,5.666131776857705,0.0,0.0,48.45162735538847,-17.19019557225121,39.579244159530134,-4.812019475753807,30.648239759037327,3.3128795628457635,19.343571709229415,6.643972471624094,10,1.5535239961277022e-15,1.5800503804271136e-15,5.551115123125783e-14,0.0,0.08253606458576956,0.9531132365183925,0.08253606458576956
0.29442248856927683,146.99042202723794,-6.592929299027884,136.70137756411154,-12.583288553491201,120.92800661367014,-5.761304209597903,15.773370950441404,-6.821984343893298,18.50613027896741,6.2731263726566855,118.19524728514412,-18.856414926147878,136.70137756411154,-12.583288553491201,10.289044463126393,5.990359254463317,0.0,0.0,48.60716466828126,-17.247132836419876,39.70371536011384,-4.825400698535983,29.88436725674904,3.216118608807978,18.50613027896741,6.2731263726566855,10,9.40710481022232e-16,1.6270892041777321e-15,5.551115123125783e-14,0.0,0.0706110645857696,0.9411882365183926,0.0706110645857696
0.2971236123176188,147.75315715265904,-6.58080430965607,136.7346763493217,-12.900816517051844,123.50870990570154,-7.103106205141053,13.225966443620152,-5.797710311910791,17.690047548856853,5.898876641865394,119.04462880046484,-18.79969315891725,136.7346763493217,-12.900816517051844,11.018480803337358,6.320012207395774,0.0,0.0,48.757638636108425,-17.302102837005364,39.83025744874967,-4.839035661534059,30.456732715606755,3.341445339622176,17.690047548856853,5.898876641865394,10,1.0284925574862744e-15,1.0167844850912054e-15,5.551115123125783e-14,0.0,0.05868606458576986,0.9292632365183926,0.05868606458576986
0.29982473606596083,147.62328268493803,-6.7632356472919755,135.84352271048195,-13.418065043887829,125.21191181018696,-8.6951399001806,10.631610900294987,-4.722925143707229,16.610173904107146,5.461037894254662,119.2333488063748,-18.879102938142495,135.84352271048195,-13.418065043887829,11.779759974456079,6.654829396595853,0.0,0.0,48.90280061073718,-17.355030957040036,39.9435546678681,-4.852813575686193,30.386993527769526,3.3287415945837378,16.610173904107146,5.461037894254662,10,1.4650446690350888e-15,1.0716882748648849e-15,1.1102230246251565e-13,0.0,0.046761064585769674,0.9173382365183925,0.046761064585769674
0.3025258598143028,147.2811967019205,-7.190712372847264,140.26852681104074,-11.515958648098213,132.27856160266782,-7.919445591876951,7.989965208372922,-3.596513056221262,20.78625633244676,7.44165796155947,119.48227047859397,-18.95761660965769,140.26852681104074,-11.515958648098213,7.012669890879761,4.325246275250949,0.0,0.0,49.04235202061265,-17.40583889995095,40.04294826399882,-4.866527672611404,30.39697019398252,3.314749962904658,20.78625633244676,7.44165796155947,11,1.657243925516584e-15,1.012144731903862e-15,5.551115123125783e-14,3.469446951953614e-18,0.03483606458576971,0.9941370565970226,0.03483606458576971
0.30522698356264477,148.4385189728176,-7.0249025513242485,140.8335354569265,-11.650028347181333,135.53277092356754,-9.232654940461828,5.300764533358972,-2.4173734067195056,20.757452199408185,7.31722142907385,120.07608325751833,-18.96724977625518,140.8335354569265,-11.650028347181333,7.604983515891084,4.625125795857085,0.0,0.0,49.17634029226997,-17.45453908067291,40.13789987222623,-4.880071207351548,30.761843093022133,3.3673605117692844,20.757452199408185,7.31722142907385,11,1.0189913216285313e-15,1.2414235222577845e-15,1.1102230246251565e-13,0.0,0.022911064585769747,0.9822120565970226,0.022911064585769747
0.3079281073109868,148.4298269225079,-7.1939192572440955,140.2030912274828,-12.12622556682193,137.6392744984964,-10.941804324082803,2.5638167289863816,-1.184421242739127,19.822792395436416,6.907922685791334,120.38029883204635,-19.03414825261325,140.2030912274828,-12.12622556682193,8.22673569502512,4.932306309577834,0.0,0.0,49.30691054489839,-17.50166430449474,40.23541555058486,-4.8930631853756665,30.83797273656309,3.360579237257154,19.822792395436416,6.907922685791334,11,1.1083105701407132e-15,1.77848961338899e-15,1.1102230246251565e-13,0.0,0.010986064585769562,0.9702870565970224,0.010986064585769562
0.31062923105932877,148.13789715693778,-7.338880266094738,139.25901162071816,-12.585441803023492,116.50564457398028,-3.0922177010322542,22.75336704673788,-9.493224101991238,18.784920235402737,6.465158859751167,120.4740913853154,-19.050600662774656,139.25901162071816,-12.585441803023492,8.878885536219617,5.246561536928755,0.0,0.0,49.298220258713016,-17.488293539463935,40.340807505487284,-4.905661111011778,30.8350636211151,3.343353987701061,18.784920235402737,6.465158859751167,10,1.1551434125670585e-15,1.4095682258821846e-15,1.1102230246251565e-13,0.0,0.1018862934095568,0.9583620565970226,0.1018862934095568
0.31333035480767074,150.1184533266195,-6.946789334078755,140.55601801154782,-12.51444466541298,120.29209254389701,-3.9420965831437584,20.263925467650807,-8.572348082269222,19.24340256857135,6.5525454168601165,121.31261544297648,-19.066990082273094,140.55601801154782,-12.51444466541298,9.562435315071681,5.567655331334226,0.0,0.0,49.45034472147846,-17.54411594273666,40.45609478511381,-4.918156754482471,31.40617593638421,3.395282614946039,19.24340256857135,6.5525454168601165,10,9.916198324707914e-16,1.3903485607692554e-15,5.551115123125783e-14,0.0,0.08996129340955683,0.9464370565970226,0.08996129340955683
0.3160314785560127,149.46209548646996,-7.160624201437088,139.1836664072164,-13.055963289871912,121.45441612783164,-5.45252670694228,17.72925027938477,-7.603436582929632,18.38790024434586,6.1786604127845255,120.79576616287054,-19.234623702656428,139.1836664072164,-13.055963289871912,10.278429079253563,5.895339088434824,0.0,0.0,49.59789792249015,-17.598115157055553,40.580199592320824,-4.930790461396342,30.61766864805956,3.2942819157954695,18.38790024434586,6.1786604127845255,10,1.1098908063690845e-15,1.0399028273866063e-15,5.551115123125783e-14,0.0,0.07803629340955687,0.9345120565970226,0.07803629340955687
0.31873260230435474,150.24860539149776,-7.142248545550669,139.22065418595076,-13.37159775412232,124.07178224295927,-6.786226349483101,15.14887194299149,-6.585371404639218,17.536033526352067,5.797299139998808,121.68462065959872,-19.168896894121133,139.22065418595076,-13.37159775412232,11.02795120554701,6.229349208571651,0.0,0.0,49.740595422027695,-17.650196366670965,40.709412274479746,-4.94368413155145,31.23461296309128,3.42498360410128,17.536033526352067,5.797299139998808,10,9.543220736640839e-16,1.158038165690686e-15,8.326672684688674e-14,0.0,0.06611129340955668,0.9225870565970224,0.06611129340955668
0.3214337260526967,150.11362968593943,-7.3205526865341,138.30150478150728,-13.88995729993158,125.77911202027727,-8.372910103455347,12.522392761230009,-5.517047196476234,16.43490285897042,5.356463900124335,121.86660192253686,-19.246421200055927,138.30150478150728,-13.88995729993158,11.812124904432162,6.569404613397481,0.0,0.0,49.878120874817185,-17.70026597859328,40.82741119671518,-4.956754236299387,31.161069851004477,3.4105990148367393,16.43490285897042,5.356463900124335,10,1.1029514329095248e-15,1.0464271311882411e-15,1.1102230246251565e-13,0.0,0.05418629340955694,0.9106620565970226,0.05418629340955694
0.3241348498010387,149.76963215837165,-7.7373914895476315,142.76586494270737,-11.991683354746186,132.9163801943071,-7.594312021230351,9.849484748400272,-4.397371333515835,20.66803496399018,7.3326505114646245,122.09782997871719,-19.3243338662108,142.76586494270737,-11.991683354746186,7.003767215664276,4.254291865198555,0.0,0.0,50.01010440897608,-17.748224280804113,40.929652675721606,-4.969755212818393,31.15807289401949,3.3936456274117113,20.66803496399018,7.3326505114646245,11,1.2315571752225183e-15,1.9953964327317495e-15,5.551115123125783e-14,3.469446951953614e-18,0.04226129340955698,0.986435340846014,0.04226129340955698
0.3268359735493807,150.92065909752702,-7.570735625499709,143.3095893280084,-12.12794578151518,136.17969571964073,-8.902679106550671,7.1298936083676665,-3.2252666749645087,20.6048864558518,7.1978813439675715,122.70470287215659,-19.325827125482746,143.3095893280084,-12.12794578151518,7.611069769518612,4.557210156015471,0.0,0.0,50.13615296363975,-17.79397328138949,41.024872111979974,-4.98259220808105,31.543677796536855,3.4507383639877958,20.6048864558518,7.1978813439675715,11,1.0471012121983877e-15,1.2118912010443742e-15,6.245004513516506e-14,0.0,0.03033629340955679,0.9745103408460138,0.03033629340955679
0.3295370972977227,150.87793484522814,-7.738699742851152,142.62764463376922,-12.607011221516288,138.2642029818822,-10.607337129971484,4.36344165188703,-1.9996740915448044,19.645935798073154,6.784265183272451,122.98170883569607,-19.391276404788748,142.62764463376922,-12.607011221516288,8.250290211458905,4.868311478665136,0.0,0.0,50.25737896465487,-17.837783772875547,41.120624550080294,-4.995041721047954,31.603705320960902,3.44154908913476,19.645935798073154,6.784265183272451,11,1.1161943994629787e-15,1.8752182364500033e-15,5.551115123125783e-14,0.0,0.018411293409556828,0.9625853408460139,0.018411293409556828
0.33223822104606465,150.6800979559504,-7.9410677438491115,141.7576002585861,-13.128429912323746,140.2075764554809,-12.408877929212125,1.550023803105205,-0.7195519831116215,18.585076141020416,6.337950785344603,123.17252411756569,-19.466380697668356,141.7576002585861,-13.128429912323746,8.922497697364284,5.1873621684746345,0.0,0.0,50.374873078466415,-17.879956359305496,41.221488161943334,-5.007046737420364,31.576162877155934,3.420622399057514,18.585076141020416,6.337950785344603,11,1.2139832429398872e-15,1.3165077996819737e-15,1.1102230246251565e-13,0.0,0.006486293409556865,0.9506603408460139,0.006486293409556865
0.3349393447944067,152.5005651540596,-7.466572820564709,142.871765863007,-12.98068477477775,120.87236114489176,-3.7420600601148593,21.999404718115244,-9.23862471466289,19.056942519991026,6.42675439324632,123.81482334301599,-19.407439168024077,142.871765863007,-12.98068477477775,9.62879929105259,5.514111954213041,0.0,0.0,50.34747737113272,-17.85906717387002,41.32969876293412,-5.018855059269939,32.13764720894914,3.470483065115893,19.056942519991026,6.42675439324632,10,1.085277364639829e-15,1.5583465054612777e-15,1.1102230246251565e-13,0.0,0.0962733828302258,0.9387353408460138,0.0962733828302258
0.33764046854274865,151.77639310769496,-7.681417898230366,141.4060547265893,-13.52970942728576,121.96944337532591,-5.25416310992793,19.436611351263394,-8.27554631735783,18.173428639873276,6.047012315361206,123.23262608671602,-19.576721742646967,141.4060547265893,-13.52970942728576,10.370338381105649,5.848291529055393,0.0,0.0,50.48900729384519,-17.911335048277042,41.44466581982543,-5.030693231972883,31.29895297304539,3.365306537602967,18.173428639873276,6.047012315361206,10,1.4559334412178698e-15,9.76327182310674e-16,1.1102230246251565e-13,0.0,0.08434838283022583,0.9268103408460139,0.08434838283022583
0.3403415922910906,152.55875144147748,-7.658106990524778,141.4104584161721,-13.847717165056906,124.58208095879581,-6.584422632796297,16.82837745737629,-7.263294532260609,17.268759165880084,5.654336676344473,124.14169925029204,-19.502053841401377,141.4104584161721,-13.847717165056906,11.148293025305383,6.189610174532128,0.0,0.0,50.62432294883477,-17.961214664630617,41.56314767487377,-5.042696059753027,31.9542286265835,3.5018568829822687,17.268759165880084,5.654336676344473,10,1.1760185438687936e-15,1.1231210537837769e-15,1.1102230246251565e-13,0.0,0.07242338283022587,0.914885340846014,0.07242338283022587
0.34304271603943265,152.38710696339186,-7.832478928208835,140.42323274564302,-14.370232368190791,126.2488329656314,-8.169415447908435,14.174399780011626,-6.200816920282357,16.142112815794473,5.209838488211491,124.28111992984853,-19.580070856402273,140.42323274564302,-14.370232368190791,11.963874217748844,6.537753439981956,0.0,0.0,50.753164945635184,-18.0086190070002,41.668758892430894,-5.054796722786209,31.859196091782447,3.4833448733841372,16.142112815794473,5.209838488211491,10,9.64502652725405e-16,1.3529001917583697e-15,1.1102230246251565e-13,0.0,0.060498382830225905,0.9029603408460138,0.060498382830225905
0.3457438397877746,152.0026606763615,-8.246702281515114,144.94705072181344,-12.461244896403379,133.4726025231121,-7.374167478876608,11.474448198701339,-5.087077417526771,20.48238409125735,7.197728685246206,124.4646666305561,-19.658973581649597,144.94705072181344,-12.461244896403379,7.055609954548068,4.2145426148882645,0.0,0.0,50.87521683002693,-18.053455469120895,41.75817315051214,-5.066764455219541,31.831276650017013,3.4612463426908473,20.48238409125735,7.197728685246206,11,1.032397906310816e-15,2.637741008668212e-15,5.551115123125783e-14,0.0,0.04857338283022594,0.978011063013188,0.04857338283022594
0.3484449635361166,153.1375893781508,-8.077037725699437,145.45293584708355,-12.600440016570232,136.7245652101176,-8.679380498004278,8.728370636965963,-3.9210595185659542,20.36821711515286,7.047940152301555,125.08471873193069,-19.648380168871796,145.45293584708355,-12.600440016570232,7.684653531067253,4.523402290870794,0.0,0.0,50.990130222863655,-18.095632388888234,41.84104265846941,-5.078519436233773,32.253545850597625,3.5257716562502157,20.36821711515286,7.047940152301555,11,1.1049949954154373e-15,1.7974809906223107e-15,8.326672684688674e-14,0.0,0.03664838283022598,0.966086063013188,0.03664838283022598
0.3511460872844586,153.03947585121458,-8.243551783666529,144.69116987426256,-13.084842327225509,138.7550723493823,-10.383072761977644,5.936097524880267,-2.701769565247865,19.37764573771598,6.628018291722373,125.31352413654655,-19.71286061894788,144.69116987426256,-13.084842327225509,8.348305976952014,4.841290543558979,0.0,0.0,51.098681414175566,-18.135336386135755,41.92574787298663,-5.089943054403003,32.28909484938436,3.512418821590874,19.37764573771598,6.628018291722373,11,1.165823642947901e-15,1.1781182367872186e-15,1.1102230246251565e-13,0.0,0.024723382830225793,0.9541610630131878,0.024723382830225793
0.3538472110328006,152.78339155175024,-8.442714223982332,143.7356583293936,-13.610666276424801,140.63801916460233,-12.182429254318741,3.097639164791275,-1.4282370221060603,18.289097924323425,6.176998650877458,125.44656040507017,-19.787664927302252,143.7356583293936,-13.610666276424801,9.04773322235665,5.167952052442469,0.0,0.0,51.20308790672405,-18.17313312813519,42.015853862353765,-5.100739099446946,32.22761863599235,3.486207300279892,18.289097924323425,6.176998650877458,11,1.1559950853213923e-15,1.4279792630816614e-15,5.551115123125783e-14,0.0,0.01279838283022583,0.942236063013188,0.01279838283022583
0.35654833478114256,154.78097064690226,-8.011421298663594,144.99683746533,-13.51452971337546,144.7837639846308,-13.415019419458552,0.21307348069919385,-0.09951029391690724,18.787998843262912,6.270914860431894,126.20883862206709,-19.785444573807354,144.99683746533,-13.51452971337546,9.784133181572269,5.503108414711866,0.0,0.0,51.30353636215105,-18.20914285923583,42.113471540793206,-5.111177607793351,32.791830719122835,3.5348758932218303,18.787998843262912,6.270914860431894,11,1.0433534611853699e-15,1.1812693813929145e-15,5.551115123125783e-14,0.0,0.0008733828302258662,0.9303110630131881,0.0008733828302258662
0.3592494585294846,153.8341201306425,-8.157857867199802,143.27538626779608,-14.004313724599953,122.42477157219172,-5.176888996368824,20.850614695604364,-8.82742472823113,17.867411191689662,5.882882578444523,125.40797507610642,-19.887196303044476,143.27538626779608,-14.004313724599953,10.558733862846411,5.846455857400152,0.0,0.0,51.284555222268374,-18.192873975581026,42.21774699492806,-5.12151963801854,31.905672858909973,3.4271973105550924,17.867411191689662,5.882882578444523,10,9.483289675529777e-16,1.651314356815507e-15,1.1102230246251565e-13,0.0,0.089276530433261,0.9183860630131879,0.089276530433261
0.36195058227782656,154.59024288991674,-8.126948805033553,143.21745150744619,-14.32461181438903,125.00820040984136,-6.509263252524406,18.20925109760482,-7.815348561864624,16.897207831140264,5.475959908307796,126.32024367630594,-19.800571722696823,143.21745150744619,-14.32461181438903,11.372791382470542,6.197663009355477,0.0,0.0,51.40466453436724,-18.237188501055115,42.32384513353914,-5.131911779490325,32.591734008399555,3.5685285578486106,16.897207831140264,5.475959908307796,10,9.26785636718082e-16,2.078531269816383e-15,5.551115123125783e-14,0.0,0.07735153043326104,0.906461063013188,0.07735153043326104
0.36465170602616853,154.3601089800398,-8.293936185966317,142.13252110092589,-14.850304923353889,126.60875090556658,-8.096766368397063,15.523770195359305,-6.753538554956826,15.743242414925962,5.027804575291113,126.3892786859999,-19.87810949864498,142.13252110092589,-14.850304923353889,12.227587879113925,6.556368737387571,0.0,0.0,51.5184644130985,-18.279068804851185,42.41275598869122,-5.1422410656098965,32.45805828421019,3.5432003718161003,15.743242414925962,5.027804575291113,10,1.1183703446909941e-15,9.54169363878945e-16,5.551115123125783e-14,0.0,0.0654265304332613,0.894536063013188,0.0654265304332613
0.36735282977451056,153.90469776160992,-8.710565894496614,146.74119622769007,-12.914428995968464,133.94722206902517,-7.273426112343813,12.793974158664895,-5.641002883624651,20.238777932861424,7.0424906693480995,126.50241829482863,-19.95691966531654,146.74119622769007,-12.914428995968464,7.163501533919843,4.203863101471851,0.0,0.0,51.62553828599084,-18.31839650729885,42.48483742378781,-5.152257871797842,32.39204258504998,3.5137347137801527,20.238777932861424,7.0424906693480995,11,1.1874173787160196e-15,1.5168727307630147e-15,5.551115123125783e-14,3.469446951953614e-18,0.05350153043326111,0.9691698713995314,0.05350153043326111
0.37005395352285253,155.0186401081042,-8.534181431642867,147.1982205756084,-13.055398749090962,137.17848021224475,-8.578629673749397,10.019740363363638,-4.476769075341565,20.052892012067254,6.872375465670725,127.14532856354114,-19.92777421476169,147.1982205756084,-13.055398749090962,7.820419532495811,4.5212173174480945,0.0,0.0,51.7254327417515,-18.355050745370015,42.55135901193796,-5.161907944266922,32.86853680985169,3.5891844748752426,20.052892012067254,6.872375465670725,11,1.3548604818920022e-15,1.204442787486707e-15,1.1102230246251565e-13,0.0,0.04157653043326115,0.9572448713995314,0.04157653043326115
0.3727550772711945,154.84990707840834,-8.697064920922083,146.33508591527325,-13.54546906263959,139.1340556044609,-10.285579851876818,7.201030310812342,-3.259889210762772,19.02732349286911,6.445271082969452,127.30776242240412,-19.99074014560903,146.33508591527325,-13.54546906263959,8.514821163135094,4.848404141717507,0.0,0.0,51.818357496646954,-18.389077403877288,42.621905961690445,-5.171232978314672,32.86749896406673,3.5695702365829245,19.02732349286911,6.445271082969452,11,1.3217145407753642e-15,1.8638771312068747e-15,5.551115123125783e-14,0.0,0.029651530433261186,0.9453198713995314,0.029651530433261186
0.37545620101953653,155.76458141264035,-8.592885234675322,146.51662824985556,-13.778017753738098,142.17873722125054,-11.788575701652086,4.337891028605014,-1.9894420520860123,18.492920120306223,6.210585550885588,128.02370812954933,-19.988603304623688,146.51662824985556,-13.778017753738098,9.247953162784805,5.185132519062775,0.0,0.0,51.90625167445297,-18.420961902055467,42.70025030473515,-5.180045454719153,33.417206150361224,3.6124040521509357,18.492920120306223,6.210585550885588,11,1.1954208543284272e-15,2.950611602272476e-15,1.1102230246251565e-13,0.0,0.017726530433261,0.9333948713995313,0.017726530433261
0.3781573247678785,155.90378534908658,-8.496165009413325,145.8826982005831,-14.027246988683785,144.45225290943367,-13.362716867662442,1.4304452911494252,-0.6645301210213432,18.469189238349227,6.0997296598047335,127.41350896223388,-20.126976648488522,145.8826982005831,-14.027246988683785,10.021087148503486,5.5310819792704615,0.0,0.0,51.98938433026014,-18.450830493520776,42.78786012494229,-5.188629851362981,32.63626450703144,3.5124836963952433,18.469189238349227,6.0997296598047335,11,9.773063113688158e-16,1.2254307737710795e-15,1.1102230246251565e-13,0.0,0.005801530433261037,0.9214698713995314,0.005801530433261037
0.38085844851622047,155.2904175956145,-8.578863778568486,144.45490028208872,-14.464764277554998,122.60908929735402,-5.251607075515757,21.845810984734698,-9.213157202039241,17.491325592713324,5.6967583892388625,126.9635746893754,-20.161522666793864,144.45490028208872,-14.464764277554998,10.835517313525802,5.885900498986513,0.0,0.0,51.92807038958705,-18.417734370014195,42.882958139377116,-5.197250013874569,32.152546160411234,3.4534617170949,17.491325592713324,5.6967583892388625,10,1.2070813178893246e-15,1.1567339608647645e-15,6.245004513516506e-14,0.0,0.09259823403173573,0.9095448713995314,0.09259823403173573
0.38355957226456244,156.24360363972266,-8.521762191920907,144.55104563013336,-14.770964630239966,125.3727668644715,-6.571005875601813,19.178278765661858,-8.199958754638153,16.44751920601687,5.273701028751723,128.10352642411647,-20.044665658991676,144.55104563013336,-14.770964630239966,11.692558009589298,6.2492024383190605,0.0,0.0,52.03457535989512,-18.457624953425256,42.97556344458006,-5.205997978611,33.09338761964128,3.618957273044579,16.44751920601687,5.273701028751723,10,1.095843787055513e-15,1.5573072917891108e-15,5.551115123125783e-14,0.0,0.08067323403173576,0.8976198713995316,0.08067323403173576
0.38626069601290447,156.8216692709208,-8.425447411361835,144.2281280577313,-15.046013969710344,127.76058086821385,-7.908806880296893,16.46754718951746,-7.137207089413451,16.01252481270535,5.069561334053316,128.21560324502596,-20.115575303763656,144.2281280577313,-15.046013969710344,12.593541213189495,6.620566558348509,0.0,0.0,52.1332477170219,-18.494536590654775,43.04877213892876,-5.21465838951873,33.0335833890753,3.593619676409846,16.01252481270535,5.069561334053316,10,9.748841345903672e-16,1.0475937046211512e-15,5.551115123125783e-14,0.0,0.06874823403173558,0.8856948713995314,0.06874823403173558
0.38896181976124644,155.5888768657614,-9.089429808578677,148.26733086002176,-13.308860101758647,134.55376765886044,-7.28486363862865,13.713563201161321,-6.023996463129997,19.993184701836537,6.887062753886102,128.27414615818523,-20.195922855644746,148.26733086002176,-13.308860101758647,7.321546005739631,4.21943029317997,0.0,0.0,52.223764816564625,-18.528372982588024,43.109066351766316,-5.222999336986868,32.94131498985431,3.5554494639301293,19.993184701836537,6.887062753886102,11,1.6782677756284284e-15,1.2089762376418444e-15,8.326672684688674e-14,3.469446951953614e-18,0.056823234031735614,0.9602044408770951,0.056823234031735614
0.3916629435095884,156.65449143523892,-8.912006090035058,148.64270184155896,-13.459496388367349,137.7263477702572,-8.600050697281453,10.916354071301754,-4.859445691085895,19.7030021122345,6.687713608556967,128.93969972932445,-20.14720999692431,148.64270184155896,-13.459496388367349,8.01178959367996,4.54749029833229,0.0,0.0,52.30577534404552,-18.55903970172816,43.166447225802145,-5.231002358303618,33.467477159476786,3.642832063107466,19.7030021122345,6.687713608556967,11,1.1423773267933064e-15,1.6939247644473334e-15,5.551115123125783e-14,0.0,0.04489823403173587,0.9482794408770953,0.04489823403173587
0.39436406725793044,156.37082946265016,-9.073891061532592,147.62829467779116,-13.960030241502082,139.5522583815953,-10.31732679369432,8.076036296195866,-3.6427034478077616,18.639446725841992,6.252367901526952,128.98884795194917,-20.212398143029034,147.62829467779116,-13.960030241502082,8.742534784859009,4.88613917996949,0.0,0.0,52.37973359063389,-18.58664587549147,43.22750080660198,-5.238683946757632,33.38161355471329,3.6129316792200648,18.639446725841992,6.252367901526952,11,1.080453699848328e-15,1.2670569782896443e-15,5.551115123125783e-14,0.0,0.03297323403173569,0.9363544408770951,0.03297323403173569
0.3970651910062724,157.2772709354341,-8.949096678513117,147.76218226034905,-14.18413252509366,142.56936612487843,-11.811182390090558,5.192816135470622,-2.3729501350031015,18.123351582826636,6.025300798501354,129.6388306775224,-20.209433323595007,147.76218226034905,-14.18413252509366,9.515088675085053,5.235035846580542,0.0,0.0,52.44790241764953,-18.61176465027922,43.2935485117262,-5.245788121755671,33.89737974814667,3.6481194484398944,18.123351582826636,6.025300798501354,11,1.2995350939055363e-15,1.517966134912379e-15,1.1102230246251565e-13,0.0,0.021048234031735724,0.9244294408770952,0.021048234031735724
0.3997663147546144,157.38731603761116,-8.828054643911123,147.05654151380006,-14.421858230188654,144.78956326053367,-13.372463866097988,2.2669782532663874,-1.0493943640906664,18.09466707124721,5.910383899288632,128.96187444255287,-20.3322421294773,147.05654151380006,-14.421858230188654,10.33077452381109,5.593803586277532,0.0,0.0,52.51062641309772,-18.634555109972098,43.364796318934665,-5.252569317626055,33.08645171052047,3.5548822981208534,18.09466707124721,5.910383899288632,11,1.125553824492335e-15,1.2331372723527562e-15,1.1102230246251565e-13,0.0,0.00912323403173576,0.9125044408770953,0.00912323403173576
0.4024674385029564,157.89047337271376,-8.688891485757436,146.69954441424966,-14.650919605204955,124.29099502998629,-5.217511413753677,22.408549384263367,-9.433408191451278,17.12824522775174,5.5108628326963665,129.5712991864979,-20.161782437901316,146.69954441424966,-14.650919605204955,11.19092895846411,5.962028119447519,0.0,0.0,52.42883707221228,-18.59441185919347,43.43848655798941,-5.259237028730674,33.70397555629621,3.691866450022829,17.12824522775174,5.5108628326963665,10,1.1076942144684865e-15,1.4737229432791817e-15,1.1102230246251565e-13,0.0,0.09415795684896677,0.9005794408770951,0.09415795684896677
0.4051685622512984,157.55445729981537,-8.836108219144734,145.4575582438463,-15.175363968205673,125.74714038842632,-6.762939540580142,19.71041785541999,-8.412424427625531,15.945933775715517,5.056569565445911,129.51162446813078,-20.231933533651585,145.4575582438463,-15.175363968205673,12.096899055969068,6.339255749060939,0.0,0.0,52.512282506084674,-18.6260292153599,43.49611444704364,-5.265751455652969,33.50322751500248,3.6598471373612735,15.945933775715517,5.056569565445911,10,1.1666994840141727e-15,1.4851810378343707e-15,1.1102230246251565e-13,0.0,0.08223295684896681,0.8886544408770951,0.08223295684896681
0.40786968599964035,158.3345887498103,-8.626448448995617,145.28454944825262,-15.351440065328617,128.3129823741832,-8.008785717820082,16.971567074069412,-7.342654347508535,15.776957586136843,4.951108679287812,129.50759186211576,-20.30254874461643,145.28454944825262,-15.351440065328617,13.050039301557694,6.724991616333001,0.0,0.0,52.58799698336115,-18.654711498103648,43.532695782951286,-5.271826506695657,33.38689909580334,3.6239892601828743,15.776957586136843,4.951108679287812,10,9.346378725234833e-16,1.065446043331218e-15,1.1102230246251565e-13,0.0,0.07030795684896707,0.8767294408770951,0.07030795684896707
0.4105708097479824,157.82331102116856,-9.144718168134268,150.30027585053975,-13.40283128909605,136.1083005129462,-7.179582284373126,14.191975337593561,-6.223249004722923,20.183097906127323,6.8472210793071415,130.11717794441242,-20.25005236840319,150.30027585053975,-13.40283128909605,7.523035170628815,4.25811312096178,0.0,0.0,52.655564189631434,-18.680338539763994,43.5611027013252,-5.277342541813024,33.90051105345575,3.707628713173847,20.183097906127323,6.8472210793071415,11,1.0039775486910597e-15,1.5925481916321745e-15,1.1102230246251565e-13,3.469446951953614e-18,0.05838295684896688,0.9513830926621785,0.05838295684896688
0.41327193349632435,157.75471854690525,-9.207288485345497,149.50342527214912,-13.80604523633994,138.1317318668069,-8.752663679766158,11.371693405342228,-5.0533815565737825,19.31287847481439,6.49454999708194,130.19054679733475,-20.300595233421895,149.50342527214912,-13.80604523633994,8.251293274756128,4.598756750994444,0.0,0.0,52.71455226971611,-18.702792909558465,43.59408491138574,-5.2824720271225925,33.881909616232896,3.684669703259157,19.31287847481439,6.49454999708194,11,1.1405875907228669e-15,2.031095300880666e-15,1.1102230246251565e-13,0.0,0.04645795684896692,0.9394580926621785,0.04645795684896692
0.4159730572446663,158.09986642521383,-9.281829073617025,149.07670844699732,-14.232518175080116,140.56584967512703,-10.400263354865302,8.51085877187029,-3.832254820214814,18.20398198823773,6.048733141526512,130.87272645875962,-20.281251316606635,149.07670844699732,-14.232518175080116,9.023157978216505,4.950689101463091,0.0,0.0,52.76588354039072,-18.722291036232534,43.638310924121235,-5.287315359567266,34.46853199424764,3.728355079193175,18.20398198823773,6.048733141526512,11,1.1021095288560422e-15,1.315138281483804e-15,5.551115123125783e-14,0.0,0.034532956848966956,0.9275330926621785,0.034532956848966956
0.41867418099300835,158.6226613930146,-9.013640688563362,148.7826908595498,-14.327145116548124,143.1729916728377,-11.768040686155395,5.609699186712106,-2.559104430392729,18.55563812760299,6.0705642354563665,130.2270527319468,-20.39770935200449,148.7826908595498,-14.327145116548124,9.839970533464786,5.313504427984762,0.0,0.0,52.81160941324133,-18.739358527973607,43.69422003240095,-5.29181416019183,33.72122328630452,3.633463336160947,18.55563812760299,6.0705642354563665,11,1.2186364816415902e-15,1.0319730514940398e-15,1.1102230246251565e-13,0.0,0.02260795684896677,0.9156080926621784,0.02260795684896677
0.4213753047413503,158.1007061631108,-9.089976336202469,147.39762842229743,-14.77673171977429,144.7291061950122,-13.54353597584798,2.668522227285223,-1.2331957439263093,17.678704991038416,5.71227674573516,129.71892343125904,-20.489008465509457,147.39762842229743,-14.77673171977429,10.703077740813372,5.686755383571821,0.0,0.0,52.851893416802795,-18.754109453230164,43.75969912259902,-5.296305731641173,33.107330891857224,3.561406719361873,17.678704991038416,5.71227674573516,11,9.028970429614733e-16,1.065886892749158e-15,5.551115123125783e-14,0.0,0.010682956848966807,0.9036830926621785,0.010682956848966807
0.4240764284896923,158.85069173656322,-8.917153479271683,147.23686310950393,-14.987104814162933,124.76582259492389,-5.524437410417029,22.47104051458004,-9.462667403745904,16.616752315937198,5.290176357734166,130.62011079356674,-20.27728117189711,147.23686310950393,-14.987104814162933,11.613828627059286,6.069951334891251,0.0,0.0,52.746483499891156,-18.70542055853216,43.822476914595576,-5.300895787902924,34.05115037907999,3.72903517453798,16.616752315937198,5.290176357734166,10,1.1333489130884125e-15,1.4708675804058023e-15,5.551115123125783e-14,0.0,0.09388110378107828,0.8917580926621786,0.09388110378107828
0.4267775522380343,158.58132160478937,-9.045796115469912,146.00775060028542,-15.508352921365145,126.25944476322621,-7.077132640552314,19.748305837059206,-8.43122028081283,15.399317037930603,4.830098072188412,130.6084335623548,-20.33845099355355,146.00775060028542,-15.508352921365145,12.573571004503936,6.462556805895232,0.0,0.0,52.808083641957666,-18.729317657063085,43.862202305737384,-5.3052948486777805,33.93814761465976,3.6961615121873113,15.399317037930603,4.830098072188412,10,1.3766374893631075e-15,9.37277240871159e-16,8.326672684688674e-14,0.0,0.08195610378107832,0.8798330926621785,0.08195610378107832
0.4294786759863763,159.43187705883682,-8.801352929485745,145.84822914533737,-15.66534298698177,128.8613083962985,-8.313765924885132,16.98692074903886,-7.351577062096638,15.296371545674099,4.743350172605031,130.5518575996633,-20.40869315958681,145.84822914533737,-15.66534298698177,13.583647913499444,6.863990057496026,0.0,0.0,52.8612936183627,-18.750046856905662,43.88648745269989,-5.309192852311758,33.80407652860071,3.6505465496306115,15.296371545674099,4.743350172605031,10,1.1154713140269057e-15,1.5301487086861469e-15,5.551115123125783e-14,0.0,0.07003110378107835,0.8679080926621785,0.07003110378107835
0.43217979973471826,158.7477598297182,-9.362038830885766,150.9870161275276,-13.678784086701192,136.8000520240065,-7.455813334400865,14.186964103521092,-6.222970752300327,19.77483978894537,6.650351388544882,131.21217633858222,-20.329135475246083,150.9870161275276,-13.678784086701192,7.760743702190615,4.316745255815426,0.0,0.0,52.90566800506111,-18.7674819381348,43.90767378566936,-5.312559093783046,34.398834547851735,3.7509055566717713,19.77483978894537,6.650351388544882,11,9.41737617105228e-16,2.0462001164844867e-15,1.1102230246251565e-13,3.469446951953614e-18,0.05810610378107839,0.942942782400811,0.05810610378107839
0.4348809234830603,158.551666069394,-9.420948565482268,150.02081853299944,-14.092471167216623,138.67222454390372,-9.047809556601855,11.348593989095718,-5.044661610614767,18.86767858847384,6.289873727400639,131.15313994452558,-20.382344894617255,150.02081853299944,-14.092471167216623,8.530847536394573,4.671522601734354,0.0,0.0,52.94083141000865,-18.781521891162967,43.93480247023208,-5.315635221530593,34.27750606428484,3.7148122180763075,18.86767858847384,6.289873727400639,11,9.912056768971099e-16,1.3235492098735698e-15,5.551115123125783e-14,0.0,0.0461811037810782,0.9310177824008108,0.0461811037810782
0.43758204723140226,158.80359727326436,-9.490311964114422,149.4559195576665,-14.528532911168504,140.983857261827,-10.712587850433351,8.472062295839493,-3.815945060735153,17.726464017017143,5.838040574668856,131.72945554064935,-20.366573485837357,149.4559195576665,-14.528532911168504,9.347677715597841,5.038220947054082,0.0,0.0,52.96838761225569,-18.79255441782123,43.970399841960145,-5.318397831082635,34.79066808643351,3.7443787630665106,17.726464017017143,5.838040574668856,11,1.0786400645732624e-15,1.6665085129872019e-15,5.551115123125783e-14,0.0,0.03425610378107824,0.9190927824008109,0.03425610378107824
0.44028317097974423,159.28718600539617,-9.184132000998417,149.07460891901826,-14.600487168959319,143.51689560496615,-12.064334364973838,5.5577133140521084,-2.5361528039854804,18.11835076857649,5.868374214135947,130.95625815044178,-20.46886138309528,149.07460891901826,-14.600487168959319,10.212577086377907,5.416355167960901,0.0,0.0,52.98942182829311,-18.800889365991168,44.01342956174913,-5.320986420808859,33.953406760399524,3.6530144037047556,18.11835076857649,5.868374214135947,11,9.667143381973178e-16,1.0364845692676986e-15,8.326672684688674e-14,0.0,0.022331103781078276,0.907167782400811,0.022331103781078276
0.44298429472808626,159.9742482149644,-9.024865383163798,148.8473667749661,-14.830258361575936,146.24139959528077,-13.625611388594741,2.6059671796853365,-1.2046469729811946,17.233126012362618,5.508888923789419,131.61424076260352,-20.339147285365364,148.8473667749661,-14.830258361575936,11.126881439998302,5.805392978412138,0.0,0.0,53.004234953829254,-18.806678296245554,44.05830868257691,-5.323603242434478,34.55169712619733,3.791134253314688,17.233126012362618,5.508888923789419,11,9.454682054266084e-16,1.708567197592021e-15,1.1102230246251565e-13,0.0,0.010406103781078091,0.8952427824008109,0.010406103781078091
0.44568541847642823,159.38502711950437,-9.060779352768872,147.2931114307358,-15.265532962494092,125.26012483364423,-5.964842404426413,22.032986597091565,-9.300690558067679,16.055884613609603,5.061014706632326,131.23722681712616,-20.3265476691264,147.2931114307358,-15.265532962494092,12.091915688768575,6.204753609725219,0.0,0.0,52.87531195972965,-18.7498810352564,44.080509124606046,-5.3260796449909815,34.28140573279048,3.749413011120968,16.055884613609603,5.061014706632326,10,1.0386156451876528e-15,1.6321761606846458e-15,5.551115123125783e-14,0.0,0.09178098878419183,0.8833177824008109,0.09178098878419183
0.4483865422247702,159.83918464452185,-8.917769241765605,146.73019470362183,-15.531575893529435,127.4402480797128,-7.276273182448598,19.28994662390903,-8.255302711080837,15.632083851222102,4.857783020334101,131.09811085239974,-20.389358913863532,146.73019470362183,-15.531575893529435,13.108989940900022,6.61380665176383,0.0,0.0,52.9104782732189,-18.764620002983406,44.07947417990482,-5.328024172780982,34.10815839927599,3.7032852619008647,15.632083851222102,4.857783020334101,10,1.7950867764871522e-15,1.6607597465367768e-15,6.245004513516506e-14,0.0,0.07985598878419187,0.871392782400811,0.07985598878419187
0.4510876659731122,161.10209636143242,-8.62740362445724,146.92270088101208,-15.65927468899853,130.41209033122067,-8.496845866238218,16.51061054979141,-7.162428822760312,15.225264517513558,4.6465670435739375,131.69743636349853,-20.305841732572475,146.92270088101208,-15.65927468899853,14.179395480420329,7.031871064541288,0.0,0.0,52.93631211814313,-18.775869039256143,44.07174577206177,-5.329321847289167,34.68937847329362,3.7993491539728375,15.225264517513558,4.6465670435739375,10,1.0607233101207235e-15,2.1223256335154426e-15,5.551115123125783e-14,0.0,0.0679309887841919,0.859467782400811,0.0679309887841919
0.4537887897214542,159.0501729102953,-9.491072671809974,151.02301710790127,-13.883375728906337,137.32785302089957,-7.8619843621276715,13.6951640870017,-6.021391366778666,19.368682772196014,6.461644938064467,131.65433433570527,-20.34502066697081,151.02301710790127,-13.883375728906337,8.027155802394025,4.392303057096363,0.0,0.0,52.95245478390967,-18.78352525219643,44.072361980364825,-5.330231340824781,34.62951757143077,3.768735926050404,19.368682772196014,6.461644938064467,11,1.2916424474177608e-15,1.348426988667301e-15,1.1102230246251565e-13,3.469446951953614e-18,0.05600598878419172,0.9350859595884629,0.05600598878419172
0.45648991346979617,159.51856218299048,-9.45680368811907,150.67658659355118,-14.219242761553545,139.83270548596863,-9.387696485845936,10.843881107582547,-4.831546275707609,18.434272400091075,6.0960101325920935,132.2423141934601,-20.31525289414563,150.67658659355118,-14.219242761553545,8.841975589439315,4.762439073434474,0.0,0.0,52.95944496981957,-18.787712892869468,44.08898169282064,-5.331084123091394,35.193887530819886,3.8035441218152286,18.434272400091075,6.0960101325920935,11,1.0810750118633868e-15,2.521272229937453e-15,1.1102230246251565e-13,0.0,0.044080988784191755,0.9231609595884629,0.044080988784191755
0.45919103721813814,159.94838921941144,-9.154540981684063,150.2418196107839,-14.29958882090866,142.28468645903217,-10.707299988210451,7.957133151751719,-3.592288832698209,18.7790537254087,6.113994690133419,131.4627658853752,-20.413583511042084,150.2418196107839,-14.29958882090866,9.706569608627538,5.145047839224597,0.0,0.0,52.960164607934466,-18.78915290471805,44.120266101127356,-5.331738058227716,34.382335176313376,3.7073074519036844,18.7790537254087,6.113994690133419,11,1.101155318962351e-15,1.3528183090487587e-15,1.1102230246251565e-13,0.0,0.03215598878419179,0.9112359595884629,0.03215598878419179
0.46189216096648017,159.15136868223507,-9.258549864604626,148.52912513997242,-14.798100324141366,143.49374528047994,-12.495049159103651,5.03537985949248,-2.303051165037715,17.75025290294186,5.694606883055206,130.77887223703055,-20.492707207196574,148.52912513997242,-14.798100324141366,10.622243542262648,5.5395504595367395,0.0,0.0,52.955030674687066,-18.788030025222064,44.161628346052126,-5.33248357634135,33.66221321629136,3.6278063943668393,17.75025290294186,5.694606883055206,11,1.110158309462209e-15,1.3316408140582047e-15,5.551115123125783e-14,0.0,0.020230988784191828,0.8993109595884627,0.020230988784191828
0.46459328471482214,160.12653328696328,-9.06478455108578,148.53625170778227,-15.0101005751849,146.45710556141364,-14.046807166653899,2.079146146368629,-0.9632934085310012,16.762524036314513,5.30906625630099,131.77372767146778,-20.31916683148591,148.53625170778227,-15.0101005751849,11.590281579181006,5.945316024099121,0.0,0.0,52.94425322878133,-18.784498236097654,44.18888358310626,-5.3332776383270595,34.640590859580165,3.798609042938814,16.762524036314513,5.30906625630099,11,9.392662727568214e-16,1.5272486548663328e-15,1.1102230246251565e-13,0.0,0.008305988784191864,0.8873859595884629,0.008305988784191864
0.4672944084631641,159.6289149279998,-9.088326631113885,147.01697274874476,-15.449987399400229,125.89351495629865,-6.493740146059935,21.123457792446118,-8.956247253340294,15.547220080328259,4.853451812457111,131.46975266841648,-20.303439211857338,147.01697274874476,-15.449987399400229,12.611942179255037,6.3616607682863435,0.0,0.0,52.807171883181624,-18.725774995992325,44.18849207535363,-5.333655704548047,34.47408870988123,3.75599148868303,15.547220080328259,4.853451812457111,10,9.266849231892546e-16,1.0735045687867388e-15,5.551115123125783e-14,0.0,0.08795757889214961,0.875460959588463,0.08795757889214961
0.46999553221150614,160.14629292214238,-8.908388379383489,146.45783915134973,-15.696235810497562,128.09491668801854,-7.803245693880967,18.362922463331188,-7.892990116616595,15.17477127875096,4.664871457208554,131.2830678725988,-20.36110726770613,146.45783915134973,-15.696235810497562,13.68845377079264,6.787847431114073,0.0,0.0,52.814182332550075,-18.730074342378586,44.173790661714236,-5.333314879722632,34.29509487833447,3.702281954395101,15.17477127875096,4.664871457208554,10,1.3887903470545233e-15,1.232986466244691e-15,8.326672684688674e-14,0.0,0.07603257889214943,0.8635359595884629,0.07603257889214943
0.4726966559598481,161.4123951951772,-8.596201231034863,146.59138480431432,-15.819286049194673,131.02193236672167,-9.03588230347934,15.569452437592645,-6.783403745715333,14.663213332322897,4.428629927144059,131.92817147199142,-20.247915976338746,146.59138480431432,-15.819286049194673,14.821010390862872,7.22308481815981,0.0,0.0,52.81241806902584,-18.731110756114735,44.15983673281098,-5.332340793796266,34.95591667015462,3.815535573572248,14.663213332322897,4.428629927144059,10,1.3171473337228308e-15,9.692215807626702e-16,1.1102230246251565e-13,0.0,0.06410757889214946,0.8516109595884629,0.06410757889214946
0.4753977797081901,159.80857396379338,-9.435470512922977,151.49392643518138,-13.917478889925889,138.7506889905416,-8.290611632762683,12.743237444639789,-5.626867257163205,18.970866203972022,6.2833308139580755,132.52306023120937,-20.200809703883962,151.49392643518138,-13.917478889925889,8.31464752861199,4.482008377002911,0.0,0.0,52.801455011855886,-18.728767186755935,44.15617090122829,-5.3311247499185335,35.56543431812519,3.859082232790499,18.970866203972022,6.2833308139580755,11,1.1104020949449745e-15,1.4867030350225162e-15,5.551115123125783e-14,3.469446951953614e-18,0.05218257889214972,0.9279804664018775,0.05218257889214972
0.4780989034565321,158.83076631786847,-9.53494664971426,149.65477378401272,-14.40335041587668,139.77020468708756,-9.980550441670381,9.884569096925162,-4.422799974206299,18.013670625867988,5.913874346168866,131.64110315814472,-20.31722476204554,149.65477378401272,-14.40335041587668,9.175992533855753,4.868403766162419,0.0,0.0,52.7830492231655,-18.72346616644125,44.1640646966116,-5.329721797256486,34.693989238367635,3.7359632016521935,18.013670625867988,5.913874346168866,11,9.888301289928896e-16,1.2074326394086713e-15,1.1102230246251565e-13,0.0,0.04025757889214954,0.9160554664018774,0.04025757889214954
0.4808000272048741,159.43783892129247,-9.15920092516986,149.3478483944627,-14.426930287115674,142.35401042305816,-11.25626828814174,6.993837971404531,-3.1706619989739337,18.41104652230804,5.944908525958734,130.93680187215463,-20.371838813074405,149.3478483944627,-14.426930287115674,10.08999052682978,5.267729361945815,0.0,0.0,52.75831932240192,-18.715527370165287,44.18024591970367,-5.328286757183683,33.99823663004905,3.671975314274558,18.41104652230804,5.944908525958734,11,9.746146749268107e-16,1.3930534137896466e-15,5.551115123125783e-14,0.0,0.028332578892149574,0.9041304664018774,0.028332578892149574
0.48350115095321605,160.23585027678584,-8.99651986429666,149.17798422538988,-14.6758189194138,145.10647278468397,-12.805872993112274,4.071511440705905,-1.8699459263015257,17.335826343023424,5.512665913919514,131.84215788236642,-20.1884848333333,149.17798422538988,-14.6758189194138,11.057866051395973,5.67929905511714,0.0,0.0,52.72750850332808,-18.705088897213514,44.18845323206927,-5.326902220993233,34.926196146969076,3.843506284873442,17.335826343023424,5.512665913919514,11,1.0279419364448066e-15,1.466548926018692e-15,1.1102230246251565e-13,0.0,0.01640757889214961,0.8922054664018775,0.01640757889214961
0.4862022747015581,159.96321086877256,-9.001023296008686,147.88240456848817,-15.103394210676669,146.76429937216045,-14.583229111506213,1.1181051963277184,-0.5201650991704554,16.267603412585228,5.109931151139835,131.61480115590294,-20.2133253618165,147.88240456848817,-15.103394210676669,12.080806300284385,6.102370914667984,0.0,0.0,52.69080607145007,-18.692287278285093,44.166989476236225,-5.325173263099796,34.75700560821666,3.80413517956838,16.267603412585228,5.109931151139835,11,9.585262096181045e-16,9.93694924770216e-16,5.551115123125783e-14,0.0,0.004482578892149425,0.8802804664018773,0.004482578892149425
0.48890339844990005,159.4296510880793,-9.01162658698485,146.26969445957928,-15.547773541750864,126.50811801848276,-7.1171954736384535,19.761576441096523,-8.43057806811241,15.027306090389988,4.650635135009111,131.24238836918929,-20.19840867675996,146.26969445957928,-15.547773541750864,13.159956628500026,6.536146954766015,0.0,0.0,52.53286049339886,-18.6264578825427,44.127799211469494,-5.322735340653816,34.581728664320934,3.7507845464365452,15.027306090389988,4.650635135009111,10,1.0877225893978003e-15,1.509324552651252e-15,5.551115123125783e-14,0.0,0.08258823651839253,0.8683554664018774,0.08258823651839253
0.491604522198242,161.19063811298957,-8.533812500713836,146.8942220630592,-15.513585631879423,129.89658927840952,-8.162755531228555,16.99763278464968,-7.350830100650867,15.077494784989767,4.570652555072892,131.81672727806946,-20.084238186952334,146.8942220630592,-15.513585631879423,14.296416049930375,6.979773131165587,0.0,0.0,52.514988632361124,-18.622323083759902,44.087597964433414,-5.31960242357424,35.21414068127494,3.857687320381803,15.077494784989767,4.570652555072892,10,1.0690674835972023e-15,8.705787997421276e-16,1.1102230246251565e-13,0.0,0.07066323651839279,0.8564304664018775,0.07066323651839279
0.49430564594658405,161.19921137624152,-8.463099734848903,145.70797864600084,-15.895439307771731,131.50529556228298,-9.67004856385713,14.202683083717858,-6.225390743914602,14.096516717819565,4.217493561366264,131.61146192818126,-20.112932869137985,145.70797864600084,-15.895439307771731,15.49123273024068,7.432339572922827,0.0,0.0,52.48677364405158,-18.6143526670541,44.05801856164057,-5.316148504273361,35.06666972248912,3.8175683021894677,14.096516717819565,4.217493561366264,10,9.602655101122915e-16,1.4307315826436028e-15,5.551115123125783e-14,0.0,0.058738236518392606,0.8445054664018773,0.058738236518392606
0.497006769694926,159.28042490464395,-9.37038420121906,150.66478351922925,-13.95375929267724,139.28764864209757,-8.899986058504673,11.377134877131681,-5.053773234172567,18.581688659707886,6.116929503440682,132.08309485952137,-20.070688796117935,150.66478351922925,-13.95375929267724,8.615641385414705,4.583375091458181,0.0,0.0,52.44957081098276,-18.602876974321138,44.0424233371994,-5.3125995467310325,35.59110071133923,3.8447877249342177,18.581688659707886,6.116929503440682,11,1.1053187600896166e-15,1.5476917254543778e-15,1.1102230246251565e-13,3.469446951953614e-18,0.04681323651839264,0.921761539248571,0.04681323651839264
0.499707893443268,158.11340681909365,-9.455113496363534,148.58923165150583,-14.441720548322749,140.0677311266079,-10.606184197818607,8.521500524897931,-3.8355363505041424,17.613236511451138,5.746811778806711,130.9759951400547,-20.188532327129458,148.58923165150583,-14.441720548322749,9.524175167587817,4.986607051959216,0.0,0.0,52.40615269512623,-18.58861664528768,44.036750265274165,-5.30882760984732,34.5330921796543,3.7089119280055343,17.613236511451138,5.746811778806711,11,1.1854037967060778e-15,9.794594627601725e-16,1.1102230246251565e-13,0.0,0.03488823651839268,0.909836539248571,0.03488823651839268
0.50240901719161,160.18452879132053,-8.791639043982784,149.69656002118197,-14.194757979996147,144.06018446292146,-11.624481417065248,5.636375558260511,-2.5702765629309,18.08821651997623,5.79637024622607,131.60834350120572,-19.99112822622221,149.69656002118197,-14.194757979996147,10.487968770138574,5.403118936013363,0.0,0.0,52.356789712419555,-18.571741390932637,44.02974430161365,-5.30501758763687,35.22180948717252,3.8856307523473,18.08821651997623,5.79637024622607,11,1.0471451951975895e-15,9.803499960635457e-16,1.1102230246251565e-13,0.0,0.022963236518392494,0.8979115392485708,0.022963236518392494
0.505110140939952,159.55812884028538,-8.850652158524603,148.050010662028,-14.682757790890115,145.3276040514547,-13.425142957512413,2.7224066105733016,-1.2576148333777013,16.8883693457655,5.332918264304789,131.16164131626252,-20.015676055194902,148.050010662028,-14.682757790890115,11.508118178257384,5.832105632365512,0.0,0.0,52.3016976164528,-18.552421373647455,43.99025870217515,-5.3008097501311084,34.86968499763456,3.837555068583658,16.8883693457655,5.332918264304789,11,9.721434974707017e-16,9.922749068296116e-16,1.1102230246251565e-13,0.0,0.01103823651839253,0.885986539248571,0.01103823651839253
0.507811264688294,159.07715723401793,-8.785250686480808,146.49149181075612,-15.057954496071645,125.69908186492862,-6.241047603098167,20.7924099458275,-8.816906892973478,15.805291237900022,4.928863092512683,130.6862005728561,-19.986817588584344,146.49149181075612,-15.057954496071645,12.585665423261805,6.272703809590838,0.0,0.0,52.11575313881935,-18.475930009938452,43.92264380742647,-5.2956775419671285,34.6478036266103,3.7847899633212307,15.805291237900022,4.928863092512683,10,9.666159462487527e-16,1.9255865024350156e-15,5.551115123125783e-14,0.0,0.08783705659702257,0.8740615392485711,0.08783705659702257
0.5105123884366359,159.5188332011569,-8.567632135689452,145.79723912999992,-15.291624541510963,127.74192459297096,-7.529910054854767,18.055314537028963,-7.761714486656196,15.430180673634766,4.738994514206142,130.36705845636513,-20.030619055717096,145.79723912999992,-15.291624541510963,13.721594071156964,6.723992405821511,0.0,0.0,52.07955129677085,-18.464958401261686,43.85001545952334,-5.289566263172411,34.437491700070936,3.723905608717004,15.430180673634766,4.738994514206142,10,1.0220865021111198e-15,1.2181596808713412e-15,1.1102230246251565e-13,0.0,0.0759120565970226,0.8621365392485711,0.0759120565970226
0.5132135121849779,160.4848548405499,-8.31626866875725,145.5680300824857,-15.501262041635023,130.27742804741658,-8.838511923763143,15.290602035069128,-6.66275011787188,14.591263561725697,4.387332011131327,130.97676652076,-19.888594052766344,145.5680300824857,-15.501262041635023,14.916824758064198,7.1849933728777735,0.0,0.0,52.034220363661944,-18.4506018079244,43.79185795493848,-5.282944537310719,35.15068820215959,3.844952292468772,14.591263561725697,4.387332011131327,10,1.519662525930415e-15,1.5064472063854075e-15,1.1102230246251565e-13,0.0,0.06398705659702286,0.8502115392485712,0.06398705659702286
0.51591463593332,161.23834036552685,-8.144138466960959,145.06612957775158,-15.79881114436251,132.5675799082029,-10.27927884883048,12.49854966954868,-5.519532295532031,13.58075867407765,4.029752485495454,131.48537090367395,-19.82856362985798,145.06612957775158,-15.79881114436251,16.172210787775274,7.654672677401551,0.0,0.0,51.979872776770854,-18.432881565710154,43.757358249106154,-5.276466555738818,35.74813987779695,3.8807844915909833,13.58075867407765,4.029752485495454,10,1.1786577462802973e-15,1.3150812635960978e-15,5.551115123125783e-14,0.0,0.052062056597022455,0.8382865392485708,0.052062056597022455
0.518615759681662,157.5833165667935,-9.266243995295902,148.6605759546841,-13.960458126075721,138.9810314178417,-9.628832825569795,9.6795445368424,-4.331625300505927,18.244219176533303,5.9753647513400345,130.4163567781508,-19.935822877415767,148.6605759546841,-13.960458126075721,8.92274061210941,4.6942141307798195,0.0,0.0,51.91881606826055,-18.412376682348572,43.743776537789344,-5.270261602926361,34.7537641721009,3.7468154078591596,18.244219176533303,5.9753647513400345,11,1.1902935029414103e-15,1.5046311889209546e-15,1.1102230246251565e-13,3.469446951953614e-18,0.04013705659702249,0.9165350328117775,0.04013705659702249
0.5213168834300039,157.57622497140287,-9.017705419862816,147.69830276582317,-14.132243531803965,140.86423814157683,-11.03361091378327,6.834064624246338,-3.0986326180206945,18.120002516900776,5.838375351053777,129.5783002489224,-19.97061888285775,147.69830276582317,-14.132243531803965,9.8779222055797,5.114538111941149,0.0,0.0,51.851607698874204,-18.389296776454895,43.740944967322996,-5.264537780065652,33.985747582725224,3.683215673662783,18.120002516900776,5.838375351053777,11,1.020924157128517e-15,1.3798598158974736e-15,1.1102230246251565e-13,0.0,0.028212056597022528,0.9046100328117777,0.028212056597022528
