time_s,total_vertical_force_n,total_pitch_moment_nm,raw_bem_vertical_force_n,raw_bem_pitch_moment_nm,resolved_station_bem_vertical_force_n,resolved_station_bem_pitch_moment_nm,transom_extrapolation_vertical_force_n,transom_extrapolation_pitch_moment_nm,pre_chine_bem_vertical_force_n,pre_chine_bem_pitch_moment_nm,post_chine_bem_vertical_force_n,post_chine_bem_pitch_moment_nm,bem_vertical_force_n,bem_pitch_moment_nm,front_vertical_force_n,front_pitch_moment_nm,transom_vertical_force_n,transom_pitch_moment_nm,longitudinal_bin_aft_post_chine_vertical_force_n,longitudinal_bin_aft_post_chine_pitch_moment_nm,longitudinal_bin_middle_post_chine_vertical_force_n,longitudinal_bin_middle_post_chine_pitch_moment_nm,longitudinal_bin_forward_post_chine_vertical_force_n,longitudinal_bin_forward_post_chine_pitch_moment_nm,longitudinal_bin_pre_chine_vertical_force_n,longitudinal_bin_pre_chine_pitch_moment_nm,active_plane_count,potential_bvp_relative_residual,potential_bvp_condition_number,pressure_bvp_relative_residual,pressure_bvp_condition_number,free_surface_pressure_max_abs_pa,contact_constraint_max_abs_m,aftmost_resolved_station_x_m,foremost_resolved_station_x_m,transom_coverage_gap_m
0.0,426.18322659971216,-35.91716421852777,418.5883513705123,-45.529086132382986,418.5883513705123,-45.529086132382986,0.0,0.0,113.94991701084386,39.121299711889165,304.63843435966845,-84.65038584427214,400.95514902330774,-33.611005101147214,10.966605137411221,7.271368948689118,14.261472438993236,-9.577528066069677,112.38877544312338,-62.467268421599485,96.35838228628037,-25.42730088410199,95.89127663026474,3.2441834614292873,113.94991701084386,39.121299711889165,11,1.0628876858770907e-15,963.6741823512789,9.243785903709704e-16,963.6741823512789,4.440892098500626e-13,2.7755575615628914e-16,0.0,1.3161740142073626,0.0
0.0014305431266172946,437.79894047337416,-31.73335177439314,428.0744865525934,-42.40042696734139,378.4808667491588,-10.859584382455012,49.59361980343459,-31.540842584886377,121.69038314596422,41.39697768843698,306.38410340662915,-83.79740465577834,410.66231332516253,-30.63190889005267,12.873599967957478,8.477129293978155,14.263027180254113,-9.57857217831862,111.62157897842512,-62.01342861302485,96.11955468286067,-25.354532345240813,98.64296974534335,3.570556302487333,121.69038314596422,41.39697768843698,10,9.464980129978338e-16,981.5016966962539,1.2008834612148019e-15,981.5016966962539,2.220446049250313e-13,0.0,0.12339131383194024,1.3079479266185665,0.12339131383194024
0.002861086253234589,446.6510889974779,-35.87181016643956,435.6438871075021,-48.349479762700724,387.2018023024457,-17.345574848583595,48.442084805056425,-31.00390491411713,116.00682901611245,39.31463738935335,319.6370580913897,-87.66411715205413,417.45531927462844,-36.05618874849378,14.931188054743433,9.763994702440817,14.264581668106052,-9.579616120386596,116.4792931813711,-64.71813494860783,100.69868048398061,-26.535641951746967,102.45908442603796,3.589659748300676,116.00682901611245,39.31463738935335,10,1.4883017757500245e-15,889.7389044860214,9.164381580718623e-16,889.7389044860214,2.220446049250313e-13,0.0,0.1151652262431444,1.2997218390297705,0.1151652262431444
0.004291629379851884,456.95241070815393,-32.340990361245545,443.635244338014,-46.11453246580788,398.7987336511895,-17.237761042306943,44.83651068682451,-28.87677142350094,122.02047646427437,40.753032527122954,321.6147678737396,-86.8675649929308,425.5478463766408,-33.88962836001093,17.138428682331707,11.129297720885756,14.266135649181427,-9.58065972212037,115.89130159352051,-64.3869634077412,100.37743255491917,-26.443900825305448,105.34603372529989,3.963299240115859,122.02047646427437,40.753032527122954,10,1.05246110571511e-15,899.831511762986,2.6904688637744264e-15,899.831511762986,1.1102230246251565e-13,0.0,0.10693913865434834,1.2914957514409746,0.10693913865434834
0.005722172506469178,459.6825686761114,-38.79651395325453,444.99728766868,-54.67869705196466,401.27027963983755,-26.33939880346901,43.72700802884242,-28.339298248495652,110.67027369065873,37.43608229250276,334.32701397802117,-92.11477934446737,425.92062279896953,-41.785118917702164,19.494257006946587,12.570307777869829,14.267688870195206,-9.581702813422194,121.98752934417645,-67.786418895173,105.81677625905567,-27.857739240543793,106.52270837478906,3.529378791249414,110.67027369065873,37.43608229250276,10,1.1462114757256427e-15,822.6786488210134,2.078002959739133e-15,822.6786488210134,4.440892098500626e-13,0.0,0.09871305106555228,1.2832696638521786,0.09871305106555228
0.007152715633086473,467.7730903158642,-35.85006577933877,450.4791461034707,-53.17491598842315,410.5214719280809,-27.117125669762743,39.9576741753898,-26.05779031866041,114.74875928060837,38.200475878685964,335.7303868228624,-91.37539186710913,431.5063643839303,-40.35155496636679,21.997484853947643,14.084234411305516,14.269241077986237,-9.582745224277495,121.3693166149253,-67.43892659873286,105.45813353893986,-27.756587166594443,108.90293666899721,3.8201218982181757,114.74875928060837,38.200475878685964,10,1.6526581914657687e-15,824.7844681008753,1.024868045917854e-15,824.7844681008753,2.220446049250313e-13,0.0,0.09048696347675622,1.2750435762633825,0.09048696347675622
0.008583258759703769,468.43288521644706,-40.75531541041383,449.32122500031744,-60.22628975593395,411.3292436661982,-35.29623161957025,37.99198133411926,-24.930058136363698,105.76798437328904,35.698815573777736,343.5532406270284,-95.92510532971167,429.51529155366586,-46.839759183574074,24.646801643222663,15.66823055794286,14.270792019558527,-9.583786784782621,126.42066123379311,-70.25994774468563,109.72151765478026,-28.87645837258337,107.41106173845506,3.211300787557306,105.76798437328904,35.698815573777736,10,1.2486036500363536e-15,757.4801436063606,1.4751457361755892e-15,757.4801436063606,2.220446049250313e-13,0.0,0.08226087588796038,1.2668174886745864,0.08226087588796038
0.010013801886321063,474.0048239053632,-38.11523542073235,451.9817221642073,-59.15798477249058,417.908521779287,-36.66138244429112,34.07320038492031,-22.496602328199458,108.71687491016789,36.15057375019393,343.26484725403935,-95.30855852268448,432.2917070216474,-45.84980399608858,27.440775441593313,17.319395900528747,14.27234144212244,-9.584827325172514,125.72266895597912,-69.86821016573427,109.25835746286293,-28.75004618111265,108.2838208351973,3.3096978241624555,108.71687491016789,36.15057375019393,10,1.1025301540283955e-15,757.5343059759906,1.654460091357592e-15,757.5343059759906,4.440892098500626e-13,0.0,0.07403478829916432,1.2585914010857904,0.07403478829916432
0.011444345012938357,478.36194644228715,-40.68383577258726,454.05222249118714,-63.88167157691785,422.6960549726778,-43.05150090137931,31.356167518509324,-20.83017067553854,104.16510067372774,34.70321682654648,349.8871218174594,-98.58488840346428,433.71020320797453,-50.13274936511485,30.37785414117664,19.034780268375986,14.273889093135965,-9.585866675848392,129.59452063321848,-72.03473855746645,112.34174122157961,-29.568263622751616,107.95085996266128,3.018113776753779,104.16510067372774,34.70321682654648,10,1.0588420873649025e-15,696.9084844511984,1.2781228631728333e-15,696.9084844511984,2.220446049250313e-13,0.0,0.06580870071036804,1.2503653134969945,0.06580870071036804
0.012874888139555651,483.6163903948012,-37.83874872286751,456.08371688592024,-62.71557121101134,428.7734376192241,-44.462173196806475,27.310279266696114,-18.253398014204862,107.17581137162837,35.145581735026624,348.9079055142919,-97.86115294603792,435.8845889119619,-49.06323114247013,33.45636676249356,20.811387087008,14.275434720345796,-9.586904667405376,128.7374673374911,-71.55402055243604,111.71049912112866,-29.40053402258551,108.45993905567214,3.093401628983628,107.17581137162837,35.145581735026624,10,9.965343781231092e-16,696.6390141003047,1.098192013012663e-15,696.6390141003047,2.220446049250313e-13,0.0,0.0575826131215722,1.2421392259081985,0.0575826131215722
0.014305431266172945,488.72733023253204,-39.12832503318414,458.4858444091314,-66.18427071343876,434.4287752242034,-50.00721412134834,24.057069184928025,-16.177056592090423,103.91587173083022,33.990151340551435,354.56997267830116,-100.17442205399018,437.77582727974055,-52.18656077500722,36.67452488096299,22.646176872483203,14.276978071828513,-9.587941130660118,131.6908288808042,-73.21095681573455,113.89783678730497,-29.988383051716617,108.98130701019205,3.0249178134609167,103.91587173083022,33.990151340551435,10,1.1773430261741936e-15,641.0333392048993,1.6281951933744876e-15,641.0333392048993,2.220446049250313e-13,0.0,0.04935652553277614,1.2339131383194024,0.04935652553277614
0.01573597439279024,494.2092090544761,-35.97720196861649,460.4313904897565,-64.80108753098955,440.507387445155,-51.322103985936394,19.924003044601477,-13.478983545053154,107.01182706445941,34.436238150943254,353.41956342529704,-99.23732568193279,439.9002659831675,-50.92429683788902,40.03042417527696,24.536070765950896,14.278518896031615,-9.588975896678368,130.6279852684022,-72.61491548442824,113.08707957161849,-29.77394879386852,109.70449858527634,3.1515385963640057,107.01182706445941,34.436238150943254,10,8.288590793688422e-16,640.9092866975728,1.114118130715025e-15,640.9092866975728,2.220446049250313e-13,0.0,0.0411304379439803,1.2256870507306064,0.0411304379439803
0.017166517519407537,498.61471119168544,-36.56412878356767,461.7434666080973,-67.59911076408841,445.4518909074511,-56.51099712713335,16.291575700646206,-11.088113636955057,103.76470567706231,33.27735228901764,357.978760931035,-100.87646305310602,440.8126081538714,-53.45207409070352,43.52204609599952,26.47795410393836,14.280056941814516,-9.590008796802508,132.86470955683268,-73.87394948007926,114.63145587735207,-30.192524605719782,110.48259549685025,3.19001103269305,103.76470567706231,33.27735228901764,10,1.767843586939928e-15,589.6633385535138,1.5100216239022631e-15,589.6633385535138,2.220446049250313e-13,0.0,0.03290435035518402,1.2174609631418103,0.03290435035518402
0.01859706064602483,504.2112405624413,-33.153460397028184,463.49611289413826,-66.03136482659545,451.37359016656535,-57.73116745533997,12.122522727572914,-8.300197371255479,106.79325206362115,33.696194331672885,356.7028608305171,-99.72755915826835,442.7823889513593,-52.03110075417777,47.147259652592496,28.46868001982864,14.281591958489509,-9.591039662679052,131.5882009047541,-73.15802328254307,113.6629247985022,-29.935232923533484,111.45173512726078,3.365697047808254,106.79325206362115,33.696194331672885,10,1.0524748549301657e-15,589.764978061216,2.1343920022918022e-15,589.764978061216,2.220446049250313e-13,0.0,0.02467826276638818,1.2092348755530145,0.02467826276638818
0.020027603772642125,507.31893745124984,-33.378682032877386,463.1617752351256,-68.5056466932719,454.93347564885175,-62.83808992036009,8.228299586273863,-5.667556772911809,103.13591466348934,32.4343043206197,360.02586057163626,-100.9399510138916,442.1319904384583,-54.29168677854224,50.90382331692899,30.505073071950925,14.283123695862578,-9.592068326286064,133.2950932022146,-74.12210364500173,114.75685058224998,-30.23457811104121,111.97391678717167,3.416730742151344,103.13591466348934,32.4343043206197,10,1.045803924084415e-15,542.6628653258367,1.0092073343106201e-15,542.6628653258367,2.220446049250313e-13,0.0,0.01645217517759212,1.2010087879642184,0.01645217517759212
0.021458146899259418,512.8633868837591,-29.770888884819506,464.56641961014003,-66.80486010179476,460.49144040533486,-63.98134564691952,4.0749792048051745,-2.8235144548752373,106.02411304788454,32.81174783412972,358.5423065622555,-99.61660793592449,443.78934793827324,-52.76172715853198,54.78938704121163,32.58393289367305,14.284651904274225,-9.593094619960574,131.83048194847726,-73.29958858177977,113.65058497936568,-29.939478305078353,113.06123963441257,3.6224589509336482,106.02411304788454,32.81174783412972,10,9.283838169619697e-16,543.0182828396786,1.5855258270319153e-15,543.0182828396786,1.1102230246251565e-13,0.0,0.00822608758879606,1.1927827003754223,0.00822608758879606
0.022888690025876714,494.31444485197324,-41.235498909575476,481.78803076357923,-58.91855299178229,481.78803076357923,-58.91855299178229,0.0,0.0,120.8400776178837,41.61959068485734,360.9479531456955,-100.53814367663969,460.75672906814515,-44.70351212941125,19.27153944918795,13.06213159626166,14.286176334640132,-9.594118376425884,133.15846941769811,-74.0516898817602,114.42910369019727,-30.155782347046774,113.36038003780016,3.669328552167258,120.8400776178837,41.61959068485734,11,1.5000375817954035e-15,717.8398789419224,1.3981626970380812e-15,717.8398789419224,4.440892098500626e-13,3.469446951953614e-18,0.0,1.3161740142073626,0.0
0.02431923315249401,500.79868256236887,-37.16567687595228,485.3090906447862,-56.042748759854305,426.9552000887455,-18.92896072333116,58.35389055604065,-37.11378803652315,125.92019095613135,42.67578419140855,359.38889968865493,-98.71853295126294,464.8043572796908,-42.18397393926995,21.706628544186273,14.613436492136493,14.287696738491753,-9.595139428818824,131.11167357018346,-72.86091359750083,113.21387015525599,-29.831745922971834,115.0633559632154,3.9741265692097727,125.92019095613135,42.67578419140855,10,1.0989844649594028e-15,726.819718409177,1.298429873719585e-15,726.819718409177,2.220446049250313e-13,0.0,0.12339131383194024,1.3079479266185665,0.12339131383194024
0.025749776279111302,490.0955912095102,-39.39673817326753,472.241206075531,-60.032523195635804,417.13184923214135,-24.759774469784873,55.10935684338966,-35.27274872585093,114.5595242302576,39.92976279398236,357.68168184527343,-99.96228598961812,451.5292041807274,-46.03361228095366,24.277174160765938,16.233031718403126,14.289212868016872,-9.596157610716993,132.19000978360782,-73.47375999814743,113.77183545366596,-29.990433064119472,111.71983660799958,3.5019070726488053,114.5595242302576,39.92976279398236,10,1.1940633898691866e-15,666.0873096129721,1.3455283088502237e-15,666.0873096129721,2.220446049250313e-13,0.0,0.1151652262431444,1.2997218390297705,0.1151652262431444
0.027180319405728598,493.6838216731611,-35.98000363314155,472.86205727272954,-58.1223482944265,422.2162837427876,-25.50271878806717,50.64577352994195,-32.61962950635933,117.45697916173226,40.41716361717215,355.4050781109973,-98.53951191159871,452.41201134870835,-44.30049116160609,26.981085848352855,17.91766028463036,14.290724476099903,-9.597172756165827,130.54867167864293,-72.55837204444083,112.47773406435823,-29.646213955211252,112.37867236799607,3.6650740880534443,117.45697916173226,40.41716361717215,10,1.2584983390498608e-15,676.9706549294647,1.983670492335543e-15,676.9706549294647,4.440892098500626e-13,0.0,0.10693913865434834,1.2914957514409746,0.10693913865434834
0.02861086253234589,486.713783771862,-37.2038339457539,463.23164161747843,-61.210683769346645,415.9889259431753,-30.59180843234111,47.242715674303156,-30.618875337005534,110.04002396084154,38.428387045295224,353.1916176566368,-99.63907081464183,442.60538487784015,-47.26968129276867,29.816167577659584,19.664032046720454,14.292231316362235,-9.598184699705692,131.43415967147592,-73.06330034335596,112.88466088570487,-29.764261940290652,108.87279709945608,3.188491469004731,110.04002396084154,38.428387045295224,10,1.427963542751606e-15,618.6111365847196,1.3476663793517294e-15,618.6111365847196,6.661338147750939e-13,0.0,0.09871305106555206,1.2832696638521786,0.09871305106555206
0.030041405658963186,488.30613859505127,-34.06705563187442,461.57648643965456,-59.68704812934317,418.75781790175444,-31.762719109890497,42.81866853790012,-27.92432901945267,111.91242484314276,38.60682418390546,349.6640615965118,-98.29387231324858,441.232285467523,-45.936689898071734,32.78011998432592,21.468827542596145,14.293733143202376,-9.59919327639883,129.6985701422709,-72.09344431830397,111.54212171190898,-29.407801604699713,108.42336974233189,3.2073736097550807,111.91242484314276,38.60682418390546,10,1.6595981840928475e-15,624.5240509585078,1.1854919215025622e-15,624.5240509585078,4.440892098500626e-13,0.0,0.09048696347675622,1.2750435762633825,0.09048696347675622
0.03147194878558048,488.0633797759128,-33.6664834899735,458.39546336884854,-61.24924661170843,419.0940467005209,-35.45943674142433,39.30141666832765,-25.789809870284103,109.38897444629737,37.7660035534215,349.00648892255117,-99.01525016512994,437.8976073485689,-47.394987009017996,35.870542715507874,23.328701840900752,14.295229711835963,-9.600198321856253,130.44275715246584,-72.51941575382256,111.84348553551439,-29.496439558000233,106.72024623457092,3.0006051466928625,109.38897444629737,37.7660035534215,10,9.76656960684501e-16,573.5756717166703,1.809130910960198e-15,573.5756717166703,2.220446049250313e-13,0.0,0.08226087588796016,1.2668174886745864,0.08226087588796016
0.032902491912197775,490.1459893871139,-30.32698188497765,456.96595877167977,-59.62010137772495,422.01835891739034,-36.54586402524859,34.94759985428942,-23.07423735247636,111.6612935650966,38.012055579563935,345.30466520658314,-97.63215695728886,436.7643317321432,-45.966070610554425,39.084936876635005,25.24028839784131,14.296720778335684,-9.601199672264535,128.6476304113603,-71.51477333801273,110.47684318130436,-29.13420690691325,106.18019161391845,3.016823287637166,111.6612935650966,38.012055579563935,10,1.3838370990879046e-15,577.2314151418246,1.0699182649518686e-15,577.2314151418246,4.440892098500626e-13,0.0,0.07403478829916432,1.2585914010857904,0.07403478829916432
0.034333035038815074,491.91538377123476,-29.479543680535343,455.5348498730802,-60.8240590737895,424.1900312154676,-40.001249369899284,31.344818657612564,-20.822809703890215,109.94143097859906,37.271975363216654,345.5934188944811,-98.0960344370061,435.1964700961251,-47.07754943342837,42.42070757543867,27.200202917305525,14.29820609967102,-9.602197164412496,129.28442415433835,-71.88089036576199,110.70095099470721,-29.201394084379288,105.60804374543552,2.9862500131351624,109.94143097859906,37.271975363216654,10,1.6455078336006185e-15,531.8094771068219,2.1811846557813407e-15,531.8094771068219,4.440892098500626e-13,0.0,0.06580870071036804,1.2503653134969945,0.06580870071036804
0.035763578165432366,494.93132676143813,-25.87996927893187,454.7897508837369,-59.022103661174754,427.70611739432104,-40.92010116363599,27.08363348941583,-18.102002497538763,112.58330277973097,37.616184991629254,342.20644810400586,-96.638288652804,434.7564747674451,-45.481825852608154,45.87516656024514,29.20504720939412,14.299685433747861,-9.603190635717837,127.45925659034485,-70.85827921415765,109.32910305104454,-28.838678422073713,105.4180884626165,3.0586689834273386,112.58330277973097,37.616184991629254,10,9.541183068250914e-16,534.7392142695049,1.1971989447998869e-15,534.7392142695049,2.220446049250313e-13,0.0,0.0575826131215722,1.2421392259081985,0.0575826131215722
0.03719412129204966,496.8328565365006,-25.02835554317191,453.2428723200479,-60.29934442669003,429.82911536237225,-44.554845936577465,23.413756957675673,-15.744498490112562,110.27890812680727,36.653967133473714,342.9639641932407,-96.9533115601638,433.08616304763086,-46.675588661444465,49.445534949421834,31.251413042526163,14.301158539447972,-9.604179924253609,128.01160504491673,-71.17738845337213,109.50887710034016,-28.89261588994789,105.44348204798375,3.1166927831562816,110.27890812680727,36.653967133473714,10,1.4101398874535859e-15,493.1427470250542,1.348704478103846e-15,493.1427470250542,2.220446049250313e-13,0.0,0.04935652553277614,1.2339131383194024,0.04935652553277614
0.03862466441866695,496.7617635862872,-22.257112374049854,449.177412056141,-59.40238876260514,429.91705199130706,-46.372364379457736,19.260360064833947,-13.030024383147406,109.46056217197864,36.07868042209776,339.7168498841623,-95.48106918470285,429.3301923608573,-45.98783348957187,53.128946048761584,33.33588598429664,14.302625176668295,-9.605164868774622,126.18065637819342,-70.15067074495434,108.16919825760239,-28.536682090242145,105.3669952483665,3.206283650493603,109.46056217197864,36.07868042209776,10,8.410864382468907e-16,495.83960316241047,1.153093996967317e-15,495.83960316241047,2.220446049250313e-13,0.0,0.04113043794398008,1.2256870507306066,0.04113043794398008
0.04005520754528425,502.22739645272554,-20.48905618873333,450.960465762392,-59.82852603671165,435.4249923225009,-49.255021055435776,15.53547343989112,-10.573504981275875,110.140345724877,35.8803681297573,340.82012003751504,-95.70889416646895,431.00086309287144,-46.33796010628518,56.92244825349407,35.455049226295564,14.30408510636005,-9.606145308743715,126.6651324572607,-70.43194520703291,108.35044640113081,-28.586738276076993,105.80454117912352,3.309789316640945,110.140345724877,35.8803681297573,10,1.096515352731864e-15,457.5526215685619,2.3364530397706566e-15,457.5526215685619,2.220446049250313e-13,0.0,0.03290435035518402,1.2174609631418103,0.03290435035518402
0.04148575067190154,507.2390715882344,-16.41478056617673,451.75994167088123,-57.69403743478148,440.2608188631737,-49.82068013849994,11.499122807707522,-7.87335729628154,113.6528837983565,36.492941808365174,338.1070578725247,-94.1869792431466,432.110525466149,-44.41314686995025,60.82300803151768,37.60548738813145,14.30553809056775,-9.607121084357932,124.84813649900859,-69.41237080511772,107.06193892782925,-28.242487703210266,106.19698244568684,3.467879265181395,113.6528837983565,36.492941808365174,10,1.5559392333804395e-15,460.18451054004015,2.2586425655398742e-15,460.18451054004015,2.220446049250313e-13,0.0,0.02467826276638796,1.2092348755530145,0.02467826276638796
0.042916293798518836,497.6605910710063,-18.44066512928768,438.2783813555145,-61.96683662025063,430.5509477415874,-56.64427224682703,7.727433613927133,-5.322564373423603,100.53495949021863,32.67254199371918,337.74342186529594,-94.63937861396985,418.526094194176,-48.61636338866026,64.82751298436239,39.78379029594715,14.306983892467949,-9.608092036574568,125.2801069378768,-69.66385805293515,107.23762801831137,-28.288981148657513,105.2256869091078,3.313460587622785,100.53495949021863,32.67254199371918,10,1.2039932433852446e-15,425.0151159196241,1.646873990139066e-15,425.0151159196241,4.440892098500626e-13,0.0,0.01645217517759212,1.2010087879642184,0.01645217517759212
0.044346836925136135,500.9160357784682,-14.754074251446596,437.11921686597213,-60.27390683622727,433.30644511741764,-57.6320737120586,3.8127717485544963,-2.64183312416867,102.44167701989375,32.9466288400904,334.67753984607845,-93.22053567631772,417.6748385197562,-47.13157297506953,68.93277498230417,41.98655673076002,14.308422276407857,-9.609058007137087,123.49791749665367,-68.66248219973458,105.99340172487823,-27.955415108480636,105.18622062454654,3.3973616318975104,102.44167701989375,32.9466288400904,10,1.0098944850069427e-15,427.64841352400003,1.1316938046215193e-15,427.64841352400003,2.220446049250313e-13,0.0,0.00822608758879606,1.1927827003754223,0.00822608758879606
0.04577738005175343,474.7499437201436,-27.259564567223684,451.3944263563461,-50.63595133760418,451.3944263563461,-50.63595133760418,0.0,0.0,117.31415178513934,43.04251855565559,334.08027457120676,-93.6784698932598,431.85556679114285,-37.4297044443357,28.584523921057023,19.78015871571293,14.309853007943737,-9.610018838600913,123.89047940686105,-68.89093275791032,106.14504753494387,-27.9946228534546,104.0447476294019,3.207085718105091,117.31415178513934,43.04251855565559,11,1.118649863456082e-15,576.2816535960341,1.5465951116275806e-15,576.2816535960341,2.220446049250313e-13,0.0,0.0,1.3161740142073626,0.0
0.04720792317837072,477.4842610949054,-23.275772333713412,450.8465324319511,-48.10068105429707,396.6410628096959,-13.625536194117672,54.20546962225524,-34.4751448601794,120.55769039233762,44.04354874312723,330.2888420396134,-92.1442297974242,431.801653216989,-35.2286027993398,31.37133202403725,21.563804839985494,14.311275853879135,-9.61097437435911,121.81901787411846,-67.6944636937292,104.93732782846433,-27.670894878571453,103.53249633703064,3.2211287748764335,120.55769039233762,44.04354874312723,10,8.724848615155509e-16,581.6973877314027,1.687632773999162e-15,581.6973877314027,1.6653345369377348e-13,0.0,0.12339131383194024,1.3079479266185665,0.12339131383194024
0.04863846630498802,476.3314240385834,-23.165174954011444,446.88581265676817,-49.885095203363505,395.9596982118281,-17.290090935673902,50.92611444494008,-32.5950042676896,116.92698124789375,42.64332153050013,329.95883140887446,-92.52841673386371,427.7491663823317,-36.950954664022504,34.26956707394883,23.397704168678946,14.312690582302883,-9.611924458667884,122.20352737780841,-67.91926116474629,105.05510671492806,-27.701267429065098,102.70019731613795,3.092111859947721,116.92698124789375,42.64332153050013,10,8.917993379535003e-16,536.7368891648226,1.0262291348986677e-15,536.7368891648226,2.220446049250313e-13,0.0,0.11516522624314418,1.2997218390297705,0.11516522624314418
0.05006900943160531,480.13135081440987,-19.04710918774962,447.4118368333023,-47.467037801947185,400.66520279248516,-17.359096763790603,46.74663404081713,-30.107941038156582,120.8799384561027,43.837598183674814,326.53189837719964,-91.30463598562201,428.54095849446503,-34.71253629637573,37.27629535731796,25.27829604529809,14.314096962626879,-9.61286893667198,120.58505328550288,-67.01388616399498,103.87417334539356,-27.385967302796438,102.0726717463032,3.095217481169385,120.8799384561027,43.837598183674814,10,1.4046660880969925e-15,545.3515702656065,1.3086564980635605e-15,545.3515702656065,2.220446049250313e-13,0.0,0.10693913865434834,1.2914957514409746,0.10693913865434834
0.051499552558222604,479.66463133998434,-19.07484909095482,443.9174627584009,-49.47570248465934,400.48694101884394,-21.32791666156521,43.43052173955698,-28.147785823094125,117.4217178968368,42.11720453258384,326.49574486156416,-91.59290701724322,424.960625899184,-36.66306410216043,40.388510675176605,27.20202266563554,14.315494765623704,-9.613807654429925,120.9363312409748,-67.21971064022438,103.96884117345786,-27.410057755921066,101.59057244713146,3.0368613789022305,117.4217178968368,42.11720453258384,10,8.672269657246113e-16,500.5255927829261,1.8747566608158557e-15,500.5255927829261,2.220446049250313e-13,0.0,0.09871305106555206,1.2832696638521786,0.09871305106555206
0.0529300956848399,484.3447821117767,-14.793381475485337,445.11983100603885,-46.97967558386415,405.7610018203376,-21.312011194103547,39.35882918570127,-25.667664389760603,121.87018633141601,43.39909503641795,323.24964467462286,-90.3787706202821,426.4247607907873,-34.343973971828575,43.6031375575255,29.16533295528234,14.316883763463945,-9.614740458939101,119.35832956810603,-66.33593816773933,102.81343570358767,-27.103116794237337,101.0778794029292,3.0602843416945404,121.87018633141601,43.39909503641795,10,9.106533426272402e-16,507.0257176909995,9.28766535654096e-16,507.0257176909995,4.440892098500626e-13,0.0,0.09048696347675622,1.2750435762633825,0.09048696347675622
0.054360638811457196,483.78301565616783,-14.890479626386991,441.32366782948975,-49.12990578907238,405.31420186855826,-25.500565335798,36.00946596093149,-23.62934045327438,117.91561507118286,41.47666905091795,323.4080527583069,-90.60657483999034,422.5477173911648,-36.43949883368583,46.91703453524969,31.164686405459562,14.31826372975337,-9.61566719816072,119.67922063068215,-66.52458123552766,102.91541223015072,-27.12725381171024,100.81341989747403,3.04526020724758,117.91561507118286,41.47666905091795,10,8.166689489050769e-16,466.7344495507484,1.8289243954018573e-15,466.7344495507484,4.440892098500626e-13,0.0,0.08226087588796016,1.2668174886745864,0.08226087588796016
0.05579118193807449,489.0055170786687,-10.568041105098153,442.8779469311535,-46.66477551522303,410.83364341566,-25.507663460299,32.04430351549348,-21.157112054924028,122.50323572679099,42.740034183048095,320.3747112043625,-89.40480969827112,424.35888517349616,-34.14801024665775,50.32699746560267,33.196556862604155,14.31963443956981,-9.61658772104456,118.14415601075586,-65.66411639740917,101.79638714062506,-26.83072958313516,100.43416805298155,3.0900362822732035,122.50323572679099,42.740034183048095,10,1.0778774277550387e-15,471.6032239549677,1.2928327424106874e-15,471.6032239549677,2.220446049250313e-13,0.0,0.0740347882991641,1.2585914010857904,0.0740347882991641
0.05722172506469178,487.7875074786378,-10.873391501199194,438.2322009021342,-49.08176288939893,409.56806605267576,-30.039939101628192,28.664134849458435,-19.04182378777074,117.54800903499137,40.511453091997666,320.6841918671429,-89.59321598139661,419.63674890180494,-36.513325890874256,53.829762907333034,35.25743626722869,14.320995669499812,-9.617501877553627,118.43763533206484,-65.83732440952942,101.91991668347987,-26.85848216923236,100.32663985159816,3.1025905973651504,117.54800903499137,40.511453091997666,10,1.146779384898919e-15,435.6857086991366,1.9115671665051937e-15,435.6857086991366,2.220446049250313e-13,0.0,0.06580870071036804,1.2503653134969945,0.06580870071036804
0.05865226819130908,493.36018298499937,-6.5533053787476305,439.9598862306413,-46.677244409158845,415.1568062259783,-30.099620241709886,24.803080004663002,-16.57762416744896,122.13914215931985,41.73456163382717,317.8207440713215,-88.41180604298609,421.6158242458392,-34.27873419772288,57.42201154148511,37.34383833766382,14.322347197675045,-9.618409518688562,116.9466936726237,-65.00109410320997,100.84382137692583,-26.573782348078836,100.03022902177193,3.1630704083027297,122.13914215931985,41.73456163382717,10,9.25836213081726e-16,439.84001275513157,9.05178768961017e-16,439.84001275513157,2.220446049250313e-13,0.0,0.05758261312157198,1.2421392259081985,0.05758261312157198
0.06008281131792637,491.6528942387275,-6.984451872816692,434.6451836893894,-49.26485406714124,413.25163883025573,-34.87891996066122,21.39354485913367,-14.385934106480022,116.43933896537803,39.315208906515096,318.2058447240113,-88.58006297365625,416.2288338010472,-36.817443570693484,61.100371633871795,39.45230219438877,14.323688803808503,-9.619310496511979,117.21582860343298,-65.16055779186973,100.96389370922961,-26.60122982545637,100.02612241134872,3.181724643669824,116.43933896537803,39.315208906515096,10,1.1569302233143644e-15,407.0311304823031,8.978925534452055e-16,407.0311304823031,4.440892098500626e-13,0.0,0.04935652553277614,1.2339131383194024,0.04935652553277614
0.061513354444543665,499.48290891658047,-2.1687914174576335,438.46733294166233,-46.409457522995865,420.83395835700196,-34.48016633042636,17.633374584660373,-11.929291192569508,122.86551520918121,40.99552621636306,315.6018177324811,-87.4049837393589,420.2964661121634,-34.12798267404145,64.86142253518672,41.579395920756355,14.325020269230372,-9.620204664172542,115.76932832999671,-64.34893918565386,99.93137712597822,-26.32793018378152,99.90111227650617,3.2718856300764827,122.86551520918121,40.99552621636306,10,9.022663042567166e-16,410.8356145394453,1.3762736462730033e-15,410.8356145394453,2.220446049250313e-13,0.0,0.04113043794398008,1.2256870507306066,0.04113043794398008
0.06294389757116096,486.4479648772475,-5.524947017613904,421.6591282784142,-51.953280641389,407.46403674474095,-42.29206984839888,14.195091533673235,-9.661210792990119,106.37956677070393,35.72964971770469,315.27956150771035,-87.68293035909377,403.4199252856232,-39.62557519771124,68.70169821470063,43.72172005602625,14.326341376923684,-9.621091875928911,116.01675387625556,-64.4960737685108,100.03214053689412,-26.35146991126836,99.23066709456062,3.164613320685433,106.37956677070393,35.72964971770469,10,8.447219580579563e-16,380.64765653257496,1.2839396812185416e-15,380.64765653257496,2.220446049250313e-13,0.0,0.03290435035518402,1.2174609631418103,0.03290435035518402
0.06437444069777826,491.7462782426922,-1.4158475381461102,422.8007822253292,-49.83569632441106,412.2687109787294,-42.624481169247446,10.532071246599799,-7.2112151551636146,110.30003777940559,36.74553813494116,312.5007444459236,-86.5812344593522,404.8009355076686,-37.66978656770269,72.61769082346389,45.87591101673007,14.327651911559686,-9.621971987173493,114.61445452671977,-63.709058298095506,99.02925724406215,-26.08674221608605,98.85703267514164,3.2145660548294046,110.30003777940559,36.74553813494116,10,1.4676723914583206e-15,384.2269465787315,9.15939207650421e-16,384.2269465787315,2.220446049250313e-13,0.0,0.02467826276638796,1.2092348755530145,0.02467826276638796
0.06580498382439555,482.7958929832919,-3.4965185728554076,409.9252951507406,-54.12177301118243,402.86008483708036,-49.25534330598663,7.065210313660259,-4.866429705195799,98.20503523654116,32.790830912106244,311.7202599141995,-86.91260392328871,391.86108704082613,-41.91231816091317,76.6058542829328,48.038644442513785,14.328951659532933,-9.622844854456016,114.84471233973069,-63.8459887071288,99.11120529868623,-26.10581648037438,97.76434227578261,3.039201264214455,98.20503523654116,32.790830912106244,10,9.746530315917975e-16,356.474183661099,1.805676244785556e-15,356.474183661099,2.220446049250313e-13,0.0,0.0164521751775919,1.2010087879642184,0.0164521751775919
0.06723552695101284,486.4769363423729,0.18240094462299794,409.315129685223,-52.452369085997105,405.81976763649647,-50.0304664559649,3.49536204872652,-2.421902630032207,100.72981523552693,33.45021836944507,308.58531444969606,-85.90258745544216,391.4840880384601,-40.40052718258781,80.66260789491668,50.206638462717734,14.330240408996142,-9.623710335506924,113.49054772130074,-63.08517779676731,98.12363796206576,-25.845596022389124,96.97112876632953,3.0281863637142834,100.72981523552693,33.45021836944507,10,8.87662214633157e-16,359.8832485748889,1.6726631868081923e-15,359.8832485748889,2.220446049250313e-13,0.0,0.00822608758879606,1.1927827003754223,0.00822608758879606
0.06866607007763015,461.6181152935062,-12.396085817347991,427.82711791705947,-41.198713095477444,427.82711791705947,-41.198713095477444,0.0,0.0,119.81786811773216,44.97807218222687,308.0092497993273,-86.17678527770423,409.93575257442836,-29.106054506323176,37.35084476918317,26.334536978235715,14.331517949894643,-9.624568289260528,113.70800369344538,-63.21399803333443,98.20995599853035,-25.864279429251205,96.0912901073516,2.901492184881363,119.81786811773216,44.97807218222687,11,9.35458403256176e-16,487.9541102417339,1.085714798930521e-15,487.9541102417339,2.220446049250313e-13,3.469446951953614e-18,0.0,1.3161740142073626,0.0
0.07009661320424744,466.4088464999966,-7.940825073614729,429.3081413939982,-38.342613075442046,379.4801917835265,-6.652427715359238,49.827949610471705,-31.690185360082808,124.79641750352958,46.674187203435224,304.51172389046866,-85.01680027887733,411.81027030176415,-26.51616122910798,40.265792124231794,28.20075473137128,14.33278407400069,-9.625418575878033,112.10703518593131,-62.28650600184463,97.23894249432703,-25.60882734679695,95.1657462102103,2.8785330697642593,124.79641750352958,46.674187203435224,10,9.68841516076685e-16,491.61725459343114,1.0148704998126313e-15,491.61725459343114,4.440892098500626e-13,0.0,0.12339131383194024,1.3079479266185665,0.12339131383194024
0.07152715633086473,464.4097560041657,-8.409400590625296,424.37132119635,-40.74787921495107,377.6193278424928,-10.825252018552334,46.75199335385719,-29.922627196398736,120.16279920876781,44.500599090425865,304.2085219875822,-85.24847830537695,406.81230706707447,-28.88007072845508,43.26341036214383,30.096931194600103,14.334038574947368,-9.62626105677032,112.33549875251046,-62.422336950523444,97.3455347100559,-25.63160460259703,94.52748852501585,2.8054632477434893,120.16279920876781,44.500599090425865,10,9.15849800084336e-16,455.7182702773158,2.4024756733848688e-15,455.7182702773158,2.220446049250313e-13,0.0,0.11516522624314418,1.2997218390297707,0.11516522624314418
0.07295769945748203,470.10667261842195,-3.9184120545212764,426.7936708041416,-38.0459310222372,383.7661052455377,-10.333832902291874,43.0275655586039,-27.712098119945324,125.61093394895657,46.28156525559018,301.182736855185,-84.32749627782735,409.43104245203483,-26.31086125118975,46.34034891812492,32.019544791289,14.335281248262236,-9.627095594620531,111.12276918331379,-61.744924834548215,96.39406974116011,-25.381973676724655,93.6658979307111,2.7994022334455337,125.61093394895657,46.28156525559018,10,1.0368080780468523e-15,462.33049069387505,1.2155987701361778e-15,462.33049069387505,3.3306690738754696e-13,0.0,0.10693913865434812,1.2914957514409746,0.10693913865434812
0.07438824258409932,468.179891808595,-4.632886153621847,421.77201317007854,-40.7452107245268,381.8428071713914,-14.867115063968726,39.92920599868711,-25.878095660558074,120.60398895446913,43.76150749843481,301.1680242156094,-84.50671822296161,404.3501550943167,-28.97007629947842,49.493224822877714,33.965112199263025,14.336511891400638,-9.627922053406452,111.33910577818801,-61.87369883872195,96.51375603624577,-25.40828091128256,93.31516240117568,2.775261527042872,120.60398895446913,43.76150749843481,10,9.958722462768082e-16,426.4878019879006,2.7650915018769745e-15,426.4878019879006,2.220446049250313e-13,0.0,0.09871305106555206,1.2832696638521786,0.09871305106555206
0.07581878571071661,475.04266494625557,0.10614941063924022,425.2153468324918,-37.840107447008165,388.9332122871244,-14.17917461499411,36.2821345453674,-23.660932832014055,126.88452822893989,45.74344175685694,298.3308186035518,-83.58354920386506,407.98630841549243,-26.195301954569572,52.71862622698439,35.9301916636315,14.337730303778738,-9.62874029842268,110.1546388136617,-61.2116546259158,95.58240224417922,-25.16475343809647,92.59377754571094,2.792858860147149,126.88452822893989,45.74344175685694,10,1.1302713063460687e-15,432.3352011645135,9.53079743044535e-16,432.3352011645135,2.220446049250313e-13,0.0,0.09048696347675622,1.2750435762633825,0.09048696347675622
0.0772493288373339,465.09284139415007,-3.1252537075256654,412.0270095429688,-43.09057696514219,378.8664589610108,-21.33092283370644,33.160550581958034,-21.759654131435752,113.43106325223354,40.631302052128106,298.5959462907353,-83.72187901727033,394.7407891774897,-31.407089731385838,56.01311592985418,37.91138622016277,14.338936286806211,-9.629550196302597,110.35984241035408,-61.33381233339887,95.69984720922248,-25.191365294333878,92.53625667115871,2.80329861046242,113.43106325223354,40.631302052128106,10,1.1891181512924472e-15,399.573594386146,8.590644509005544e-16,399.573594386146,4.440892098500626e-13,0.0,0.08226087588796016,1.2668174886745867,0.08226087588796016
0.07867987196395121,470.7117993299896,1.1438995479236382,414.0952182437996,-40.6865398798183,384.5075577887876,-21.151543482127153,29.587660455011985,-19.534996397691145,118.15948354551898,42.11562460332949,295.9357346982806,-82.80216448314782,396.99843477677433,-29.131095662971887,59.37323490929667,39.9053468259356,14.34012964391859,-9.630351615040075,109.20194410942815,-60.686296636262526,94.78486023227165,-24.95304450138731,91.94893035658079,2.8371766545020165,118.15948354551898,42.11562460332949,10,1.472479169107431e-15,404.4053539476899,1.2517456062370817e-15,404.4053539476899,2.220446049250313e-13,0.0,0.0740347882991641,1.2585914010857904,0.0740347882991641
0.0801104150905685,461.71897828720313,-1.649228153343195,401.7338645648391,-45.519456407710976,375.2919280691425,-27.953959450737756,26.44193649569661,-17.56549695697322,105.39305645123022,37.407603815916076,296.3408081136089,-82.92706022362702,384.58216225878243,-33.92685912347676,62.79550584781139,41.90877539414459,14.341310180609327,-9.631144424011024,109.39711764041182,-60.8023522571692,94.8856635742863,-24.976881832013675,92.05802689891077,2.8521738655558124,105.39305645123022,37.407603815916076,10,1.0362802920238573e-15,375.0077668281375,1.4854552777013478e-15,375.0077668281375,4.440892098500626e-13,0.0,0.06580870071036804,1.2503653134969945,0.06580870071036804
0.0815409582171858,465.65179759087505,2.068850712840259,401.9983340635068,-43.68435534107488,379.05802409100613,-28.35179590404408,22.940309972500643,-15.332559437030795,108.29473884624606,38.350658933634676,293.7035952172607,-82.03501427470957,385.03288323469263,-32.217648523255406,66.27643665172096,43.918427730090336,14.342477704461503,-9.631928493994671,108.2643864995312,-60.16865920389242,93.97843871958914,-24.74185475724174,91.46076999814039,2.8754996864245825,108.29473884624606,38.350658933634676,10,1.0804913918639662e-15,379.26938557544315,2.339988925704946e-15,379.26938557544315,4.440892098500626e-13,0.0,0.05758261312157198,1.2421392259081985,0.05758261312157198
0.08297150134380309,461.559340585418,0.8169422048500792,394.4211384502105,-46.98369817668481,374.6514571898615,-33.68975433071594,19.76968126034899,-13.293943845968869,100.4393577026748,35.19544353240222,293.9817807475357,-82.17914170908702,377.403184600931,-35.48147046349271,69.81252395930787,45.93111636553739,14.343632025179142,-9.632703697194602,108.45019895792849,-60.27902224450753,94.05977839874684,-24.762178437437896,91.47180339086034,2.862058972858428,100.4393577026748,35.19544353240222,10,1.1274344029411806e-15,352.44114314601416,7.274040051325724e-16,352.44114314601416,3.3306690738754696e-13,0.0,0.04935652553277592,1.2339131383194024,0.04935652553277592
0.08440204447042038,465.3058612352021,4.413288397012046,394.39554140749885,-45.275324435627766,378.05885219605534,-34.22327540983554,16.336689211443513,-11.052049025792229,103.13568537868721,36.04869506782423,291.25985602881156,-81.32401950345195,377.5608316464167,-33.89695498451374,73.40025663416709,47.943713288785425,14.344772954618307,-9.633469907259638,107.34121826933861,-59.658460004688685,93.15695044514788,-24.529214970304118,90.7616873143251,2.8636554715408025,103.13568537868721,36.04869506782423,10,8.740245441762207e-16,356.3634655879237,1.067763637969125e-15,356.3634655879237,2.220446049250313e-13,0.0,0.04113043794398008,1.2256870507306066,0.04113043794398008
0.08583258759703767,463.430205011773,3.830516211300065,388.9329541088021,-47.90064813443115,375.79240747931965,-38.9571709831672,13.140546629482458,-8.943477151263949,97.55976005662637,33.58235856823501,291.3731940521758,-81.48300670266626,372.04818546492845,-36.488409357351486,77.03611924002689,49.95315256795592,14.34590030681766,-9.634226999304365,107.517835662477,-59.76339201047065,93.23612243962435,-24.54920978711663,90.6192359500744,2.8295950949210322,97.55976005662637,33.58235856823501,10,8.923811387407641e-16,331.69055375728584,1.0205046752676057e-15,331.69055375728584,4.440892098500626e-13,0.0,0.03290435035518402,1.2174609631418105,0.03290435035518402
0.08726313072365498,467.37722193406216,7.384066144109994,389.0180005832922,-46.22770730038198,379.2441774291811,-39.53565926475753,9.773823154111085,-6.6920480356244525,100.41795312769199,34.4254837638931,288.6000474556002,-80.65319106427505,372.313612542683,-34.93739187112382,80.71659549335027,51.95643286516338,14.347013898028887,-9.63497484992956,106.43118710254113,-59.15527466309063,92.33811634871851,-24.318144588602607,89.83074400434056,2.820228187418145,100.41795312769199,34.4254837638931,10,8.574767026197959e-16,335.3573097126834,9.749026343672971e-16,335.3573097126834,2.220446049250313e-13,0.0,0.02467826276638796,1.2092348755530145,0.02467826276638796
0.08869367385027227,466.1697942579645,6.990048496749225,384.1356039136597,-48.64745327571026,377.5840086190543,-44.13479599403749,6.551595294605363,-4.512657281672773,95.51824011557008,32.171376349248575,288.6173637980896,-80.81882962495885,367.3835090211356,-37.32485800541153,84.43817169008234,53.95061983940299,14.348113546746566,-9.63571333724224,106.6013986400834,-59.25613957420484,92.43216462790176,-24.34143058894722,89.58380053010448,2.7787405381932118,95.51824011557008,32.171376349248575,10,7.958908678732475e-16,312.6507731236719,1.1652425312212917e-15,312.6507731236719,2.220446049250313e-13,0.0,0.0164521751775919,1.2010087879642184,0.0164521751775919
0.09012421697688956,470.2072238729788,10.447260319337758,384.23515135140985,-47.051677486501376,380.9861641481021,-44.80048562624904,3.248987203307763,-2.2511918602523338,98.37323704881734,32.952022417724294,285.86191430259254,-80.00369990422567,367.66068469626623,-35.84914577594287,88.19734010297476,55.93284843615621,14.349199073737775,-9.63644234087558,105.54040344800546,-58.66174030542101,91.53827548544061,-24.11127043230222,88.78323536914647,2.7693108334975562,98.37323704881734,32.952022417724294,10,1.0291342164656306e-15,316.09975450611597,1.408766466091542e-15,316.09975450611597,2.220446049250313e-13,0.0,0.00822608758879606,1.1927827003754223,0.00822608758879606
0.09155476010350685,447.70019286474735,-1.7732707221570507,405.9414042766184,-34.914724105645064,405.9414042766184,-34.914724105645064,0.0,0.0,120.09337285775655,45.258822789434674,285.8480314188618,-80.1735468950797,389.3214128465432,-23.681387224317803,44.02850971613281,31.545278244169253,14.350270302071328,-9.637161742008503,105.708170126427,-58.76045501412709,91.65385524908393,-24.13944643763464,88.48600604335087,2.7263545566820397,120.09337285775655,45.258822789434674,11,1.1904413517089477e-15,430.6942406318792,1.3201195353908458e-15,430.6942406318792,2.220446049250313e-13,0.0,0.0,1.3161740142073626,0.0
0.09298530323012415,453.36815672113227,2.670253103668479,408.44643103459765,-32.03436780058027,362.0811312527217,-2.5467706417484237,46.36529978187593,-29.487597158831846,125.60649216710117,47.14474391783138,282.83993886749647,-79.17911171841163,392.1685825965328,-21.032518911453764,46.84824706745291,33.340643438507286,14.35132705714656,-9.637871423385045,104.37692739197131,-57.98619556365665,90.770297354556,-23.91180371746207,87.69271412096917,2.7188875627070743,125.60649216710117,47.14474391783138,10,1.0994440308716087e-15,433.3871322391457,1.6048942653473928e-15,433.3871322391457,4.440892098500626e-13,0.0,0.12339131383194024,1.3079479266185665,0.12339131383194024
0.09441584635674144,444.60332528594256,-0.3318826418801777,396.85823771656266,-36.876691204194856,353.3692620819493,-9.042843184717213,43.48897563461338,-27.833848019477642,114.00502766788263,42.48823861452644,282.85321004868,-79.36492981872131,380.52902516210685,-25.840099841635293,49.72193095711392,35.1467884690886,14.352369166721838,-9.63857126933348,104.5721216347358,-58.10160378313054,90.89613889607257,-23.942971973421344,87.38494951787162,2.6796459378305997,114.00502766788263,42.48823861452644,10,9.647249525335352e-16,403.0642232494281,1.3113049832914033e-15,403.0642232494281,4.440892098500626e-13,0.0,0.1151652262431444,1.2997218390297707,0.1151652262431444
0.09584638948335873,449.39997579004705,3.6373816648776014,398.5794023969536,-34.61901707042324,358.4802060931936,-8.793090245173488,40.09919630375998,-25.825926825249752,118.36758042171073,43.990677943889864,280.2118219752428,-78.6096950143131,382.4003437178276,-23.683908182484117,52.64623561127683,36.960551013146905,14.353396460942625,-9.639261165785182,103.60564844185332,-57.56394711430257,90.0247793949272,-23.718475522666992,86.58139413846229,2.672727622656467,118.36758042171073,43.990677943889864,10,8.434054985719614e-16,408.2774930671647,1.3540891667999726e-15,408.2774930671647,1.6653345369377348e-13,0.0,0.10693913865434834,1.2914957514409746,0.10693913865434834
0.09727693260997604,440.10856455675673,0.46883418244227926,386.36598908229604,-39.63940665741751,349.16415609460665,-15.52906624036936,37.201832987689386,-24.11034041704815,106.11096794359614,39.14133506197774,280.25502113869993,-78.7807417193953,370.1363144474813,-28.67005994571926,55.617841336906274,38.778835128454716,14.354408772369124,-9.63994100029318,103.79870917435397,-57.67761047119311,90.13807538634906,-23.747670913821892,86.3182365779969,2.6445396656197104,106.11096794359614,39.14133506197774,10,1.250055455717897e-15,378.3157225576486,7.825967148944632e-16,378.3157225576486,2.220446049250313e-13,0.0,0.09871305106555206,1.2832696638521786,0.09871305106555206
0.09870747573659333,443.4350555178401,3.963910278845148,386.526240186087,-37.86229941995413,352.662803078249,-15.778717265970585,33.863437107838024,-22.083582153983542,108.90291908404805,40.1693607362284,277.6233211020389,-78.03166015618253,370.4462118762907,-26.994092578340997,58.63343770554575,40.59861351923668,14.355405936003626,-9.64061066205053,102.84232620951335,-57.1450510934383,89.27374899811119,-23.525326805610867,85.50724589441438,2.6387177428666533,108.90291908404805,40.1693607362284,10,7.495396640960804e-16,383.3406910618098,1.3966061118190055e-15,383.3406910618098,2.220446049250313e-13,0.0,0.09048696347675622,1.2750435762633825,0.09048696347675622
0.10013801886321062,438.63939620307787,2.329987487400757,378.72280971485543,-41.347362910430405,347.77959075501275,-21.042746932025608,30.94321895984268,-20.304615978404797,100.9783351392772,36.83685461832776,277.74447457557824,-78.18421752875815,362.59328171811944,-30.445672154090772,61.68972669564107,42.416929683399886,14.356387789317377,-9.641270041908358,103.03348106870015,-57.257069430554694,89.36038993134603,-23.549124369797227,85.35060357553202,2.6219762715937875,100.9783351392772,36.83685461832776,10,8.020403139524087e-16,355.82109062172555,8.053722379532034e-16,355.82109062172555,2.220446049250313e-13,0.0,0.08226087588796038,1.2668174886745864,0.08226087588796038
0.10156856198982792,441.7180639867701,5.687184840582887,378.55756704038936,-39.70261765618159,350.9025408190702,-21.44361400458186,27.655026221319133,-18.259003651599727,103.44295580635915,37.74046255866676,275.1146112340302,-77.44308021484832,362.57728402413164,-28.90179606679331,64.78342579036145,44.23089993976982,14.357354172277049,-9.641919032393625,102.0867115050614,-56.729441214040975,88.49562068830741,-23.327331211604623,84.53227904066135,2.613692210797275,103.44295580635915,37.74046255866676,10,1.2196552784892143e-15,360.2291288208022,1.252928855480669e-15,360.2291288208022,1.6653345369377348e-13,0.0,0.07403478829916432,1.2585914010857904,0.07403478829916432
0.10299910511644521,439.03910221342056,4.705615748134491,372.79808388416893,-42.523019809589385,348.08744442683286,-26.107637442917564,24.71063945733607,-16.41538236667182,97.5875620177584,35.07586401604196,275.2105218664106,-77.59888382563139,356.76952625809344,-31.689542058336258,67.91127102795626,46.03771533419743,14.358304927370849,-9.642557527726682,102.27596737689447,-56.83995972335075,88.55922752343517,-23.346020367144227,84.37532696608095,2.5870962648635754,97.5875620177584,35.07586401604196,10,9.397232888090993e-16,335.3919066551051,1.0250080018306545e-15,335.3919066551051,2.220446049250313e-13,0.0,0.06580870071036804,1.2503653134969945,0.06580870071036804
0.1044296482430625,442.24218676008644,8.003618717032076,372.6926208093334,-40.92070492923716,351.22089155804053,-26.569680997481214,21.471729251292857,-14.351023931755947,100.16482997745705,35.95333047266796,272.52779083187636,-76.87403540190509,356.8129268586782,-30.1878392827073,71.07002000177403,47.83464342357788,14.3592398996342,-9.643185423838501,101.338285278623,-56.31711981676288,87.69072509351219,-23.123906706578218,83.49878045974116,2.566991121436004,100.16482997745705,35.95333047266796,10,1.0063016226240286e-15,339.37810374578817,2.2467836402314565e-15,339.37810374578817,2.220446049250313e-13,0.0,0.0575826131215722,1.2421392259081985,0.0575826131215722
0.1058601913696798,440.3377960175541,7.249249232835126,367.64800565228893,-43.49072604372975,349.1459409114707,-31.049176269896833,18.50206474081824,-12.441549773832918,95.12454714066752,33.552913341615024,272.5234585116214,-77.04363938534479,351.7211822737178,-32.7259780857724,74.25645480716138,49.61902993699513,14.360158936674967,-9.643802618387614,101.52537122424329,-56.426214139882646,87.75027985185217,-23.141112842669223,83.24780743552597,2.523687597207072,95.12454714066752,33.552913341615024,10,8.918806066514431e-16,316.7048408707478,1.1773952704254824e-15,316.7048408707478,2.220446049250313e-13,0.0,0.04935652553277614,1.2339131383194024,0.04935652553277614
0.1072907344962971,443.5802700590722,10.446404541585792,367.5302106748561,-41.96191101160815,352.2185542565194,-31.603305195174016,15.311656418336725,-10.358605816434135,97.72524478819655,34.36825083815606,269.8049658866596,-76.33016184976428,351.751823237817,-31.297486761020423,77.46738493255684,51.388300313383056,14.361061888698334,-9.644409010776837,100.59608933890746,-55.90795840602518,86.8882644878737,-22.920043151935573,82.32061205987844,2.497839708196466,97.72524478819655,34.36825083815606,10,7.391322650456073e-16,320.40085107968565,9.04367410792978e-16,320.40085107968565,2.220446049250313e-13,0.0,0.04113043794398008,1.2256870507306064,0.04113043794398008
0.10872127762291439,441.7308979042241,9.71036096916729,362.4938300697603,-44.48023604068328,350.1782825794045,-36.0982521776979,12.315547490355812,-8.38198386298538,92.76872140701059,32.02928210119869,269.72510866274973,-76.50951814188201,346.6692992035015,-33.784595643929066,80.69965009219138,53.13996111526598,14.361948608531186,-9.645004502169623,100.78053639233727,-56.01558962910558,86.97088658301462,-22.941185477570144,81.97368568739785,2.4472569647937306,92.76872140701059,32.02928210119869,10,1.3910252235088964e-15,299.55902651391494,1.361060262714049e-15,299.55902651391494,2.220446049250313e-13,0.0,0.03290435035518402,1.2174609631418103,0.03290435035518402
0.11015182074953168,443.126065316846,12.101303358657496,360.4897206794519,-43.720364522996164,351.3168231902687,-37.43976233123638,9.172897489183242,-6.280602191759783,93.49338568773553,32.08258109266167,266.9963349917164,-75.80294561565785,344.8131233672913,-33.124708964151324,83.95012299790857,54.87160131831502,14.362818951646116,-9.645588995506198,99.85899759804084,-55.50169876507938,86.12417726209377,-22.723004624163423,81.0131601315818,2.4217577735849574,93.49338568773553,32.08258109266167,10,9.738125827402553e-16,303.0188980627001,2.0641722979189575e-15,303.0188980627001,4.440892098500626e-13,0.0,0.02467826276638818,1.2092348755530145,0.02467826276638818
0.11158236387614898,438.73461033217126,10.44225663654052,352.877116817594,-47.11877253095872,346.7281411500521,-42.883434146837686,6.14897566754189,-4.235338384121036,85.95420024725655,28.862922021465884,266.92291657033746,-75.98169455242459,337.1552254882683,-36.49247444456665,87.21571206771803,56.580893476626535,14.363672776184952,-9.646162395519362,100.04245758491115,-55.608630346655474,86.22768281261635,-22.748746756512276,80.65277617280998,2.37568255074315,85.95420024725655,28.862922021465884,10,8.686784510079249e-16,283.82364023948975,9.508311229471336e-16,283.82364023948975,2.220446049250313e-13,0.0,0.01645217517759212,1.2010087879642184,0.01645217517759212
0.11301290700276627,441.2506043222023,13.202788927037489,351.9672546628264,-45.94277679490082,348.91393036151413,-43.82715775594505,3.053324301312273,-2.1156190389557707,87.75074713370495,29.336200732885082,264.21650752912143,-75.27897752778587,336.3927303104182,-35.41608122801162,90.49336406880218,58.26559476379916,14.364509942981952,-9.646724608750045,99.13184397742995,-55.10043977799786,85.39313548166139,-22.532754907376003,79.69152807003006,2.3542171575880033,87.75074713370495,29.336200732885082,10,1.2532596342740242e-15,287.07284901353046,1.434891644538952e-15,287.07284901353046,2.220446049250313e-13,0.0,0.00822608758879606,1.1927827003754223,0.00822608758879606
0.11444345012938356,413.7123860332552,-0.724159791931811,367.44762212988314,-36.12075339797369,367.44762212988314,-36.12075339797369,0.0,0.0,103.18546483808629,39.32399511741268,264.26215729179694,-75.44474851538644,351.82859957648293,-25.56395241474584,47.5184561411859,34.48706816637654,14.365330315586391,-9.64727554356251,99.31740654407545,-55.20803128131332,85.5009072769676,-22.560023277384474,79.44384347075385,2.3233060433113764,103.18546483808629,39.32399511741268,11,1.1454028187878978e-15,393.55362521100386,7.773129026287664e-16,393.55362521100386,2.220446049250313e-13,6.938893903907228e-18,0.0,1.3161740142073626,0.0
0.11587399325600087,415.99740136133533,2.4376950943387783,366.86662331881166,-34.3418433004245,323.28747467273234,-6.62627161207206,43.57914864607932,-27.71557168835244,105.55181225393643,40.20178510178984,261.31481106487524,-74.54362840221437,351.56778110327946,-24.001686809553405,50.06348649777101,36.08719701405148,14.366133760284862,-9.647815110159302,98.1126341693376,-54.50560600084638,84.67626595301004,-22.346221021767747,78.52591094252756,2.308198620399793,105.55181225393643,40.20178510178984,10,9.798251298077105e-16,395.66886763704866,1.9972745696726095e-15,395.66886763704866,2.220446049250313e-13,0.0,0.12339131383194024,1.3079479266185665,0.12339131383194024
0.11730453638261816,411.99609053223077,1.0044699994909152,360.3438518319609,-37.406536020758494,319.4533491951026,-11.235847126059781,40.89050263685829,-26.170688894698714,98.79303340149096,37.307019536865965,261.5508184304699,-74.71355555762445,344.9913110575135,-27.030061803875725,52.63785932859424,37.68287502396253,14.366920146123073,-9.648343220595894,98.33398970411761,-54.63509609504805,84.77709812683837,-22.372436870951717,78.43973059951396,2.2939774083752837,98.79303340149096,37.307019536865965,10,8.664872016605844e-16,368.8769428418846,1.956535536038833e-15,368.8769428418846,2.220446049250313e-13,0.0,0.1151652262431444,1.2997218390297705,0.1151652262431444
0.11873507950923545,414.2258323132879,3.9499612220321083,359.84732810524184,-35.96488989842476,322.1070124801626,-11.658164461849907,37.74031562507923,-24.30672543657485,100.81510377531245,38.0806208184336,259.03222432992936,-74.04551071685836,344.61951028329423,-25.672703745946876,55.23863268506656,39.27152475677398,14.367689344927141,-9.648859788794997,97.49273979594268,-54.16946503728577,83.95937066496663,-22.160383321902003,77.58011386902007,2.2843376423293975,100.81510377531245,38.0806208184336,10,1.0446684079617116e-15,373.15283112803655,9.929172140167199e-16,373.15283112803655,2.220446049250313e-13,0.0,0.10693913865434834,1.2914957514409746,0.10693913865434834
0.12016562263585275,411.50432001641207,2.8093650268884716,354.5532181103691,-38.719562709440254,319.52783175807264,-16.01976338910282,35.02538635229644,-22.699799320337434,95.22871984383507,35.48515173316636,259.324498266534,-74.20471444260669,339.2729782140975,-28.39192162563907,57.86290057098999,40.850651383088156,14.36844123132454,-9.649364730560611,97.7124168684233,-54.29734622865262,84.04823977402015,-22.183962621978516,77.56384162409059,2.276594408024451,95.22871984383507,35.48515173316636,10,8.724866741367866e-16,347.041064778804,1.4634175998766001e-15,347.041064778804,2.220446049250313e-13,0.0,0.09871305106555206,1.2832696638521786,0.09871305106555206
0.12159616576247004,413.9495588966516,5.780043786204253,354.22662836954976,-37.23029596907915,322.3153163011849,-16.41970654709027,31.91131206836485,-20.81058942198888,97.38674369888047,36.30506557594303,256.83988467066933,-73.53536154502224,339.07258789518994,-26.987941924982863,60.5077953186971,42.41784367477886,14.36917568276451,-9.649857963591739,96.87121837856644,-53.83109287079845,83.23372423241486,-21.972924848645256,76.734942059688,2.2686561744215155,97.38674369888047,36.30506557594303,10,1.102782882715698e-15,351.3809202445586,9.783865408596966e-16,351.3809202445586,1.1102230246251565e-13,0.0,0.09048696347675622,1.2750435762633825,0.09048696347675622
0.12302670888908733,412.0063392108408,4.886268584788141,349.67134074072396,-39.71124680708772,320.50188513345006,-20.57053095775308,29.169455607273903,-19.14071584933464,92.59545251810084,33.98454295349622,257.07588822262306,-73.6957897605839,334.465956736276,-29.43416688080032,63.170489895026755,43.97077487308427,14.369892579538021,-9.650339407495808,97.09009641350785,-53.95801071040791,83.31169965618184,-21.99382372559232,76.6740921529334,2.2560446754163053,92.59545251810084,33.98454295349622,10,1.0747554461814081e-15,327.4373187984057,1.083604183849498e-15,327.4373187984057,2.220446049250313e-13,0.0,0.08226087588796038,1.2668174886745864,0.08226087588796038
0.12445725201570464,414.5189343607805,7.787651142895719,349.3781163622156,-38.25971687079016,323.2861613460293,-21.032672658244508,26.09195501618632,-17.22704421254565,94.80522682062443,34.77182768837136,254.57288954159122,-73.03154455916155,334.3001424204545,-28.068743307521174,65.84820013552873,45.50720343421865,14.370591804797304,-9.650808983801758,96.24999216900125,-53.491863092008714,82.49785358067328,-21.78329405223876,75.8250437919167,2.243612585085927,94.80522682062443,34.77182768837136,10,8.909659282747806e-16,331.3951435666355,1.4192370675921172e-15,331.3951435666355,2.220446049250313e-13,0.0,0.0740347882991641,1.2585914010857904,0.0740347882991641
0.12588779514232193,412.5639630082006,6.8722723447050456,344.78307265188664,-40.726628902859915,321.46059507120736,-25.23338712313307,23.322477580679276,-15.493241779726844,90.10146392739244,32.47914546531671,254.6816087244942,-73.20577436817659,329.6545028582234,-30.501434692741583,68.53818690540224,47.02497365341948,14.371273244574896,-9.651266615972851,96.46822814981385,-53.618160104604655,82.57285404352541,-21.803196327118336,75.64052653115493,2.2155820635463996,90.10146392739244,32.47914546531671,10,8.813979812364307e-16,309.7142300159098,1.3579137997631764e-15,309.7142300159098,2.220446049250313e-13,0.0,0.06580870071036804,1.2503653134969945,0.06580870071036804
0.1273183382689392,414.9699052417682,9.63647544258945,344.3604690638363,-39.37230641658164,324.07857960649744,-25.81650771614258,20.281889457338877,-13.555798700439055,92.23358819375245,33.17944271605316,252.12688087008385,-72.55174913263478,329.3602102681796,-29.233828496490986,71.2377581857863,48.52201616849956,14.371936787802197,-9.651712229419125,95.629881722204,-53.15266726859463,81.76057057585996,-21.593395018825277,74.7364285720199,2.194313154785121,92.23358819375245,33.17944271605316,10,9.438436585670473e-16,313.3633047278529,1.1323178417255524e-15,313.3633047278529,1.6653345369377348e-13,0.0,0.0575826131215722,1.2421392259081985,0.0575826131215722
0.1287488813955565,413.7531307336525,9.021689060163432,340.4866821809811,-41.49490851974031,323.0029552023533,-29.738118725796454,17.48372697862783,-11.756789793943852,88.31539703809467,31.241473294277604,252.1712851428864,-72.73638181401788,325.43627732319874,-31.322513532447772,73.94427108412617,49.99634834412078,14.372582326327588,-9.652145751509579,95.84700531521655,-53.27832603073655,81.8446968627693,-21.61512003296358,74.47958296490054,2.157064249682257,88.31539703809467,31.241473294277604,10,8.814805486702925e-16,293.5637274929047,6.711838389070865e-16,293.5637274929047,2.220446049250313e-13,0.0,0.04935652553277614,1.2339131383194024,0.04935652553277614
0.13017942452217382,416.378507100388,11.77469758602544,340.27164532535187,-40.10407395528597,325.79149675721965,-30.307986725212913,14.480148568132222,-9.796087230073056,90.66779372977825,31.984580168723433,249.60385159557364,-72.0886541240094,325.3501635779937,-30.0188098405458,76.65513376746021,51.446074538155216,14.37320975493406,-9.652567111583977,95.01072969174022,-52.81382967846342,81.03878867232527,-21.407121090547868,73.55433323150814,2.132296645001894,90.66779372977825,31.984580168723433,10,8.274215520438824e-16,296.97356261284625,9.646627462459516e-16,296.97356261284625,2.220446049250313e-13,0.0,0.04113043794398008,1.2256870507306064,0.04113043794398008
0.1316099676487911,409.9515882478414,9.10011749300321,331.18130809473814,-44.235284084513296,319.52950890226583,-36.30504380373523,11.65179919247231,-7.930240280778065,81.49423021637875,28.03899909971637,249.68707787835933,-72.27428318422963,316.20996195890854,-34.11629251766951,79.36780731757655,52.86938625163712,14.37381897135636,-9.6529762409644,95.22604935999526,-52.93862634170613,81.14000854840974,-21.432907585516077,73.32101996995436,2.09725074299255,81.49423021637875,28.03899909971637,10,1.0513236352751642e-15,278.780702223412,1.1941601386473347e-15,278.780702223412,2.220446049250313e-13,0.0,0.03290435035518402,1.2174609631418103,0.03290435035518402
0.1330405107754084,411.75516260536824,11.466531150492692,330.1429819816807,-43.17625685268493,321.4579145548005,-37.229664768757715,8.68506742688021,-5.946592083927214,82.99144540072473,28.45331555349184,247.15153658095593,-71.62957240617675,315.3009452219663,-33.144657940489736,82.07980750710432,54.26456216394883,14.374409876297637,-9.653373072966403,94.39210289285006,-52.475378222663004,80.34566676260394,-21.227987115210027,72.4137669255019,2.0737929316963033,82.99144540072473,28.45331555349184,10,1.0411491889433947e-15,281.98434762246836,1.2773514891290107e-15,281.98434762246836,2.220446049250313e-13,0.0,0.02467826276638796,1.2092348755530142,0.02467826276638796
0.13447105390202568,405.0326247146605,8.773096018066894,320.7605768728425,-47.26826608086378,314.9358860157541,-43.256290315110164,5.824690857088399,-4.011975765753618,73.41778339172583,24.53756197465526,247.34279348111664,-71.80582805551903,305.8689358454996,-37.2031144940388,84.78870649571527,55.629968055015624,14.374982373445686,-9.653757542909926,94.60648753991491,-52.599660804096985,80.45862233667762,-21.2571531237843,72.27768360452416,2.0509858723622116,73.41778339172583,24.53756197465526,10,1.2022613871492877e-15,265.2220124173586,9.218855525274438e-16,265.2220124173586,2.220446049250313e-13,0.0,0.01645217517759212,1.2010087879642184,0.01645217517759212
0.135901597028643,405.5073419329056,10.591097178180135,318.4017688590793,-46.69643010915863,315.50733489978137,-44.69090453485558,2.894433959297942,-2.00552557430305,73.53010023997533,24.46517533405698,244.87166861910399,-71.16160544321559,303.6396711176913,-36.71882985010495,87.4921344457257,56.96405661641489,14.375536369488577,-9.654129588129797,93.7777126381852,-52.138942002168676,79.67554017848488,-21.055005416433822,71.4184158024339,2.032341975386892,73.53010023997533,24.46517533405698,10,9.651900313481883e-16,268.2365105655024,9.780036114729745e-16,268.2365105655024,2.220446049250313e-13,0.0,0.00822608758879606,1.1927827003754223,0.00822608758879606
0.1373321401552603,383.2553145874054,-1.2890708379669746,336.2522648552658,-36.39514495736978,336.2522648552658,-36.39514495736978,0.0,0.0,91.09505616163725,34.930602473188834,245.15720869362855,-71.3257474305586,321.4409095037844,-26.384225126279716,47.438333309491114,34.74964343629872,14.376071774129906,-9.654489147985975,93.99353403702784,-52.26370957033924,79.78583552154102,-21.084442547771815,71.3778391350597,2.0224046875524593,91.09505616163725,34.930602473188834,11,1.5020464403205091e-15,370.73159433094276,1.6679987830886406e-15,370.73159433094276,2.220446049250313e-13,0.0,0.0,1.3161740142073626,0.0
0.13876268328187757,384.477645928031,1.209084546517218,335.04728809413945,-35.04877497272281,293.6595116401867,-8.72533639520347,41.38777645395277,-26.32343857751934,92.53438009408671,35.47767442982854,242.51290800005273,-70.52644940255136,320.5008451453991,-25.217087668302952,49.600212282528396,36.08100837869358,14.376588500103496,-9.65483616387341,92.93327745489815,-51.65022294735947,79.01173227654844,-20.88471560314668,70.56789826860614,2.0084891479547906,92.53438009408671,35.47767442982854,10,9.537400313026559e-16,372.4901032685267,1.63553676944821e-15,372.4901032685267,2.220446049250313e-13,0.0,0.12339131383194024,1.3079479266185667,0.12339131383194024
0.14019322640849488,382.60185333215355,0.3886658719944336,331.0534856144908,-37.22374258219506,292.2012661911191,-12.35636289943281,38.85221942337171,-24.867379682762248,88.21049130082241,33.47644481340436,242.8429943136684,-70.70018739559941,316.45131811314843,-27.35437039800354,51.77344875581749,37.39820684922958,14.377086463187636,-9.655170579231612,93.17562109207272,-51.79118912133122,79.10951672078008,-20.912109821462593,70.5578565008156,2.0031115471943934,88.21049130082241,33.47644481340436,10,1.1161243652629361e-15,347.8965231960305,1.1080456010867481e-15,347.8965231960305,1.1102230246251565e-13,0.0,0.11516522624314418,1.2997218390297707,0.11516522624314418
0.14162376953511216,384.10080323886524,2.804180678702515,330.25587370093217,-36.03211086661645,294.3816092337828,-12.926217574566436,35.874264467149374,-23.105893292050013,89.74267845271594,34.0516639741181,240.5131952482162,-70.08377484073453,315.7675378409175,-26.23966484385781,53.95569981572896,38.6993378621142,14.37756558221879,-9.655492339553874,92.39664868529499,-51.36083782500801,78.34068656114798,-20.714082093207658,69.77586000177322,1.9911450774811499,89.74267845271594,34.0516639741181,10,9.13102707368686e-16,351.553938468897,1.7154292113987311e-15,351.553938468897,2.220446049250313e-13,0.0,0.10693913865434834,1.2914957514409746,0.10693913865434834
0.14305431266172947,382.29525993860216,1.8593592330378712,326.3159976608314,-38.2971369575084,293.0059872905648,-16.708289606266675,33.31001037026658,-21.588847351241725,85.51569209794239,31.96073499372615,240.800305562889,-70.25787195123456,311.77255807319716,-28.467425514999775,56.144676086300144,39.982586140433774,14.378025779104838,-9.655801392396132,92.63849462489458,-51.501122693519875,78.42520014592259,-20.73880379122761,69.73661079207183,1.9820545335129367,85.51569209794239,31.96073499372615,10,1.0256489475454871e-15,327.9099990943001,1.0377720690380655e-15,327.9099990943001,1.6653345369377348e-13,0.0,0.09871305106555206,1.2832696638521786,0.09871305106555206
0.14448485578834674,383.97043577447823,4.277819447232169,325.68215567498953,-37.064225228056245,295.3201374720712,-17.263382973919846,30.362018202918307,-19.8008422541364,87.20386745571174,32.57938084953438,238.47828821927777,-69.64360607759065,311.2538256896646,-27.312304767855295,58.33814310597582,41.246221902472996,14.378466978837794,-9.65609768738553,91.86010340585186,-51.07049566039032,77.65957196958104,-20.541947735001642,68.95861284384489,1.9688373178013165,87.20386745571174,32.57938084953438,10,8.213595969446486e-16,331.74772300136567,8.14490671340585e-16,331.74772300136567,1.249000902703301e-13,0.0,0.09048696347675622,1.2750435762633827,0.09048696347675622
0.14591539891496405,382.1989646153818,3.3217631895389985,321.76926952438464,-39.29942805421811,294.0011555319876,-21.077807821942486,27.768113992397048,-18.221620232275626,83.0609479885445,30.52451378595086,238.70832153584007,-69.82394184016893,307.28615287946855,-29.51045617750799,60.53392262640719,42.48860054327562,14.37888910950605,-9.656381176228638,92.10221758490898,-51.21068188717193,77.73816800067658,-20.5651326088483,68.86793595025453,1.9518726558512824,83.0609479885445,30.52451378595086,10,8.672575028666399e-16,310.16719229720053,2.3840416182684125e-15,310.16719229720053,1.6653345369377348e-13,0.0,0.08226087588796016,1.2668174886745867,0.08226087588796016
0.14734594204158136,383.82193272363037,5.631910280591313,321.0798631048054,-38.13017802411616,296.2294936585278,-21.722548451969686,24.85036944627757,-16.407629572146476,84.70716014093185,31.086619690877043,236.37270296387354,-69.21679771499322,306.7127467881286,-28.419600120498643,62.72989383319571,43.70816221380926,14.379292102306076,-9.656651812719307,91.32580120779394,-50.78069620318749,76.97720467958632,-20.369578401752392,68.06969707649328,1.9334768899466752,84.70716014093185,31.086619690877043,10,1.003681310401352e-15,313.7606696362525,8.383932180666352e-16,313.7606696362525,2.220446049250313e-13,0.0,0.0740347882991641,1.2585914010857904,0.0740347882991641
0.14877648516819864,384.6994022090453,5.776632099256936,319.8175663176248,-39.217473220562454,297.592138071056,-24.452773087951755,22.22542824656881,-14.764700132610699,83.26268247147947,30.1900570756503,236.5548838461454,-69.40753029621274,305.3957318289225,-29.469889648193856,64.92399448856915,44.903431300197,14.379675891553644,-9.656909552746209,91.56814662753187,-50.92093639469218,77.06021034216096,-20.39331490697461,67.92652687645257,1.9067210054540382,83.26268247147947,30.1900570756503,10,8.586690556508738e-16,294.1959240054607,1.1495479574079434e-15,294.1959240054607,2.220446049250313e-13,0.0,0.06580870071036804,1.2503653134969945,0.06580870071036804
0.15020702829481594,384.6384679915763,7.280191211226743,317.4494874517288,-38.80448573759054,298.1116378945354,-25.87949523303587,19.337849557193408,-12.924990504554671,83.24230222688128,30.005086938834523,234.20718522484754,-68.80957267642509,303.1442055808043,-29.135670240047062,67.11422199607752,46.073015805573824,14.38004041469454,-9.657154354300015,90.7945813647444,-50.49222261367728,76.30799177970844,-20.199815132155507,67.10461208039473,1.8824650694076865,83.24230222688128,30.005086938834523,10,9.306353682752847e-16,297.5587840780956,1.1982197563769557e-15,297.5587840780956,2.220446049250313e-13,0.0,0.05758261312157198,1.2421392259081985,0.05758261312157198
0.15163757142143322,379.5003810470049,4.91475758936631,310.18141234933086,-42.349319486338004,293.50137377369145,-31.13286283508856,16.6800385756394,-11.216456651249445,75.77262498247819,26.65349723278353,234.40878736685264,-69.00281671912151,295.82136104719956,-32.643462870365795,69.29863438749064,47.21560663721237,14.380385612314742,-9.657386177480262,91.03660401161208,-50.63233622294871,76.40146288736605,-20.22579437475202,66.97072046787449,1.8553138785792456,75.77262498247819,26.65349723278353,10,8.37750390331317e-16,279.69220989006254,1.0616938583695484e-15,279.69220989006254,2.220446049250313e-13,0.0,0.04935652553277614,1.2339131383194026,0.04935652553277614
0.15306811454805053,380.72369470079855,6.899859365287931,309.11083294105987,-41.39939906354965,295.2886365042144,-32.04836925521499,13.822196436845445,-9.351029808334658,77.02082470814281,27.010128195874167,232.09000823291703,-68.40952725942378,294.8676320404702,-31.772512451859086,71.47535123217824,48.32997680164887,14.380711428150134,-9.65760498450185,90.26640018608599,-50.20529152291087,75.66362877078458,-20.035464546660968,66.15997927604646,1.8312288101480618,77.02082470814281,27.010128195874167,10,9.09607415494619e-16,282.85721118387966,1.6397807953092836e-15,282.85721118387966,4.440892098500626e-13,0.0,0.04113043794398008,1.2256870507306066,0.04113043794398008
0.1544986576746678,374.74251361716085,4.270177044254858,301.0169403338771,-45.15094085223646,289.8875774351043,-37.57624132521215,11.129362898772797,-7.574699527024308,68.65124342065077,23.445184057186495,232.36569691322632,-68.59612490942294,286.71894133871956,-35.48699272666016,73.64255446934565,49.4149805106162,14.381017809095633,-9.657810739701182,90.50743927083793,-50.344966993002345,75.76842827984225,-20.064399969043876,66.08982936254614,1.8132420526232451,68.65124342065077,23.445184057186495,10,9.678517370209335e-16,266.4478512345442,1.61635836938522e-15,266.4478512345442,1.6653345369377348e-13,0.0,0.03290435035518402,1.2174609631418105,0.03290435035518402
0.1559292008012851,374.9070428785282,5.790496064780882,298.9082615827058,-44.605938385610074,290.6076957637871,-38.92259814756977,8.300565818918699,-5.6833402380403015,68.80272525946941,23.398314910738584,230.10553632323638,-68.00425329634865,284.72724900972423,-35.02105272634137,75.79848916359008,50.46955220066425,14.381304705213891,-9.658003409542001,89.74109906683469,-49.919920303621524,75.04669027588133,-19.877838894157584,65.31774698052035,1.7935059014304784,68.80272525946941,23.398314910738584,10,8.777880773072613e-16,269.4337456824422,1.1908924174933066e-15,269.4337456824422,1.3877787807814457e-13,0.0,0.02467826276638796,1.2092348755530145,0.02467826276638796
0.15735974392790242,371.8454491169203,4.351403220483938,293.7581202256782,-47.104997796696296,288.1877150562282,-43.26816697612779,5.570405169449998,-3.836830820568508,63.30270891909563,21.077115697778027,230.4554113065826,-68.18211349447434,279.52241286284544,-37.483119286309005,77.94146418433145,51.492705469413785,14.381572069743399,-9.658182962620842,89.98262897037434,-50.05969370076895,75.15580523592126,-19.908468971805767,65.31697710028699,1.7860491781003986,63.30270891909563,21.077115697778027,10,8.840794649041407e-16,254.31296976911847,1.3270277178421858e-15,254.31296976911847,2.220446049250313e-13,0.0,0.0164521751775919,1.2010087879642184,0.0164521751775919
0.1587902870545197,371.6139065310689,5.664664735397409,291.2809028630441,-46.70329832488591,288.5110938671305,-44.78412369361348,2.7698089959135928,-1.9191746312724263,63.02260524177764,20.888120801161527,228.25829762126642,-67.5914191260474,277.16223386220133,-37.16051782638263,80.06985280976141,52.4835319314522,14.381819859106127,-9.658349369672157,89.22418527686223,-49.63840806959897,74.44508969123822,-19.724256397568055,64.589022653166,1.7712453411195952,63.02260524177764,20.888120801161527,10,1.348972833788117e-15,257.13085902604234,1.4186849472486292e-15,257.13085902604234,2.220446049250313e-13,0.0,0.00822608758879606,1.1927827003754223,0.00822608758879606
0.160220830181137,353.0982759557053,-4.5961889331990164,308.7373264196969,-37.032710694681356,308.7373264196969,-37.032710694681356,0.0,0.0,80.09824218237567,30.73259706699062,228.6390842373212,-67.76530776167199,294.5642528818714,-27.453132311629446,44.15197504091926,32.51544598200352,14.382048032914632,-9.658502603573092,89.46897573598335,-49.779423358553956,74.55191646968812,-19.75472050939144,64.6181920316497,1.768836106273433,80.09824218237567,30.73259706699062,11,8.267319988858419e-16,359.13878426353097,1.0609749070439874e-15,359.13878426353097,1.1102230246251565e-13,0.0,0.0,1.3161740142073626,0.0
0.16165137330775428,353.80014937158313,-2.60468938228059,307.4708408287913,-35.93601947253413,267.85954549186425,-10.739787523145992,39.61129533692707,-25.196231949388135,81.16418979678828,31.121150252837175,226.30665103200306,-67.0571697253713,293.51948704772053,-26.506436643177636,45.89840576988397,33.56038990024493,14.382256553978609,-9.65864263934788,88.53520644299783,-49.24172496423212,73.84992665883716,-19.572549016199115,63.92151793016805,1.757104255059943,81.16418979678828,31.121150252837175,10,1.0799147846161781e-15,360.6785655243663,1.2255866550147896e-15,360.6785655243663,2.220446049250313e-13,0.0,0.12339131383194024,1.3079479266185667,0.12339131383194024
0.1630819164343716,352.68254277929157,-3.2812507128950585,304.66384507799256,-37.67820181579992,267.4590860835207,-13.863118831384895,37.20475899447189,-23.815082984415028,77.97001436671627,29.56480893152561,226.69383071127635,-67.24301074732557,290.65466652390006,-28.209515762539326,47.645430867080485,34.58703450381621,14.382445388310993,-9.658769454171946,88.79988597859176,-49.394403397667645,73.95341206217465,-19.602339486498174,63.940532670509924,1.7537321368402488,77.97001436671627,29.56480893152561,10,8.835199655024019e-16,337.31895227951645,2.076755775082026e-15,337.31895227951645,1.1102230246251565e-13,0.0,0.1151652262431444,1.2997218390297707,0.1151652262431444
0.16451245956098887,353.6043177398263,-1.3699433118532909,303.7337432557346,-36.70238226785662,269.36435350119535,-14.564047629064135,34.36938975453927,-22.138334638792486,79.12972465692738,29.976210620121854,224.60401859880724,-66.6785928879785,289.8303368307838,-27.30517708093572,49.391366403909046,35.59411679645803,14.382614505133475,-9.658883027375603,88.08589619236992,-48.999211198937736,73.2589499829478,-19.422069299564193,63.259172423489574,1.7426876105234044,79.12972465692738,29.976210620121854,10,1.0640751235941079e-15,340.58381041862987,1.1421072625675638e-15,340.58381041862987,1.1102230246251565e-13,0.0,0.10693913865434834,1.2914957514409746,0.10693913865434834
0.16594300268760617,352.0371215475484,-2.350430122199313,300.4809199371526,-38.70815204325419,268.55007431504123,-18.0118336253054,31.93084562211135,-20.69631841794879,75.51536019966983,28.16135609881234,224.96555973748278,-66.86950814206655,286.51977030099545,-29.27189841240201,51.13458736967142,36.58045163065013,14.382763876881526,-9.658983340447437,88.35306802587624,-49.15287581995588,73.36206461198307,-19.451485026627406,63.25042709962346,1.7348527045167543,75.51536019966983,28.16135609881234,10,1.3438411407397178e-15,318.39537565297474,1.7600813317607665e-15,318.39537565297474,1.1102230246251565e-13,0.0,0.09871305106555206,1.2832696638521786,0.09871305106555206
0.16737354581422348,353.0394988052751,-0.47132899073022827,299.63810960458375,-37.72172795264481,270.5176617196096,-18.72957413673828,29.12044788497417,-18.992153815906534,76.7454918836821,28.589164313479337,222.89261772090165,-66.31089226612414,285.7830772032131,-28.357189209946398,52.873528122853166,37.54493059625348,14.382893479208887,-9.659070377037313,87.64412079384755,-48.75999203977275,72.67585642992158,-19.27327312288279,62.57264049713251,1.7223728965314038,76.7454918836821,28.589164313479337,10,1.3228686422806509e-15,321.89865417325956,1.7575491948519378e-15,321.89865417325956,1.1102230246251565e-13,0.0,0.09048696347675622,1.2750435762633825,0.09048696347675622
0.16880408894084076,353.89837841884696,-0.40872858478243757,298.82160137041757,-38.63978320213607,272.1732651416241,-21.152208891593176,26.648336228793482,-17.487574310542897,75.5852546930171,27.86940647462327,223.23634667740046,-66.5091896767593,284.9086923534203,-29.236105299376533,54.6066827744351,38.486520837553144,14.383003290991528,-9.659144122959045,87.9138602559399,-48.91484856148777,72.78441042166394,-19.30339795548353,62.538075999796625,1.7090568402119928,75.5852546930171,27.86940647462327,10,9.884577857484502e-16,301.75827029037333,7.802435777147228e-16,301.75827029037333,1.6653345369377348e-13,0.0,0.08226087588796038,1.2668174886745867,0.08226087588796038
0.17023463206745806,355.3285267864824,1.5558635231138283,298.41954422981945,-37.52110701585306,274.55723540584097,-21.765304661042506,23.86230882397848,-15.755802354810555,77.24877323998366,28.438842081399514,221.17077098983577,-65.95994909725252,284.61282798790796,-28.18919571252519,56.332605504243354,39.40426380183172,14.383093294331115,-9.659204566192702,87.21055931330174,-48.52475707539192,72.10904721035548,-19.127796508914827,61.85116446617857,1.6926044870541972,77.24877323998366,28.438842081399514,10,9.4404954689502e-16,305.09932311417754,1.7579102421566315e-15,305.09932311417754,1.6653345369377348e-13,0.0,0.0740347882991641,1.2585914010857904,0.0740347882991641
0.17166517519407534,353.21639638872693,0.2810370825110837,294.64817257770795,-39.72821050860202,273.2934904570824,-25.541576198423655,21.35468212062557,-14.186634310178363,73.14428873814867,26.438560847669997,221.50388383955928,-66.16677135627202,280.7833221027577,-30.35698514323201,58.04991081141125,40.29727392262968,14.383163474557913,-9.659251696886583,87.4823332291756,-48.680663269332776,72.22748428862268,-19.15979974502107,61.79406632176101,1.6736916580818217,73.14428873814867,26.438560847669997,10,1.0337468173018804e-15,286.84206087125153,7.990512559942364e-16,286.84206087125153,2.220446049250313e-13,0.0,0.06580870071036804,1.2503653134969945,0.06580870071036804
0.17309571832069265,354.68804234585593,2.172602096748925,294.3063473691729,-38.632399015921635,275.71420933556107,-26.2055707641496,18.592138033611832,-12.426828251772037,74.85662404340684,26.995316573143754,219.44972332576606,-65.62771558906537,280.5475548255283,-29.332849636766355,59.75727370009447,41.16473724087408,14.383213820233165,-9.659285507358806,86.78495917590703,-48.29364896349573,71.5657417269942,-18.987519954089016,61.09902242286479,1.653453328519376,74.85662404340684,26.995316573143754,10,8.022267383500958e-16,290.0041188297145,2.3320363583877125e-15,290.0041188297145,2.220446049250313e-13,0.0,0.0575826131215722,1.2421392259081985,0.0575826131215722
0.17452626144730995,348.36404869450087,-0.820078445754298,286.34456190616766,-42.505722959093646,270.29784334857504,-31.714980060447374,16.046718557592612,-10.790742898646272,66.53556248835162,23.330472874916055,219.80899941781598,-65.83619583400963,272.5273745697124,-33.16668242072802,61.45342980163751,42.00590996707229,14.383244323150983,-9.659305992098565,87.05793785243338,-48.45025046937991,71.69391010535817,-19.02190144035798,61.05715146002444,1.6359560757282665,66.53556248835162,23.330472874916055,10,9.196395021261485e-16,273.3389408351899,9.979479509427447e-16,273.3389408351899,8.326672684688674e-14,0.0,0.04935652553277592,1.2339131383194024,0.04935652553277592
0.17595680457392723,348.9129027006731,0.6423089510619988,285.1038722312301,-41.78604188352958,271.79734174573747,-32.78377947664046,13.306530485492658,-9.002262406889116,67.31056039319392,23.517537726103832,217.7933118380362,-65.3035796096334,271.39247228788093,-32.518494888952574,63.13717543445252,42.820116987781596,14.383254978339647,-9.659313147767023,86.3665992666084,-48.06646749531415,71.04821940025812,-18.853612269886085,60.3784931711697,1.6165001555668255,67.31056039319392,23.517537726103832,10,8.482632806222384e-16,276.3331799560124,1.4462645878514992e-15,276.3331799560124,1.249000902703301e-13,0.0,0.04113043794398008,1.2256870507306066,0.04113043794398008
0.17738734770054454,343.67005980721984,-1.8243292951888535,278.249395850374,-45.078916484366005,267.5285543198195,-37.782211163298456,10.720841530554537,-7.296705321067549,60.045668949927574,20.428869816375254,218.20372690044644,-65.50778630074129,264.4794464202316,-35.77177264156336,64.80736760292577,43.606750319572384,14.383245784062478,-9.659306973197879,86.63998322836888,-48.223371130556615,71.18405757424073,-18.890326708006587,60.379686097836846,1.6059115378219104,60.045668949927574,20.428869816375254,10,9.248316088394387e-16,261.0353190339517,1.446101888739943e-15,261.0353190339517,1.1102230246251565e-13,0.0,0.03290435035518402,1.2174609631418103,0.03290435035518402
0.17881789082716182,343.37051937114245,-0.7376800435721194,276.1888777571654,-44.67953784753985,268.18715294783044,-39.200792115656355,8.001724809334974,-5.4787457318834925,59.946383726849746,20.29982432889389,216.2424940303157,-64.97936217643375,262.5243786926066,-35.44366008787705,66.46292393671783,44.365267513702456,14.383216741818043,-9.659287469397526,85.95487179492024,-47.842970509051,70.5546434226346,-18.726313850253593,59.73297881276085,1.5899221828708505,59.946383726849746,20.29982432889389,10,9.193123272802949e-16,263.87102246792284,2.0507178401460626e-15,263.87102246792284,1.1102230246251565e-13,0.0,0.02467826276638818,1.2092348755530145,0.02467826276638818
0.18024843395377912,340.9223728096535,-2.068021432815115,272.15940885425437,-46.77941769927688,266.7861840594973,-43.07839653153775,5.37322479475705,-3.7010211677391283,55.46152744955867,18.399518099183766,216.6978814046957,-65.17893579846066,258.43638238143404,-37.50395680799093,68.10282257187949,45.095190014720735,14.38316785633998,-9.659254639544919,86.22930466081164,-48.00036997528108,70.69354909739016,-18.764432064486126,59.7750276464939,1.5858662413065474,55.46152744955867,18.399518099183766,10,8.165625074771228e-16,249.77573698811085,1.5734059530183601e-15,249.77573698811085,1.1102230246251565e-13,0.0,0.0164521751775919,1.2010087879642184,0.0164521751775919
0.1816789770803964,340.38072374676784,-1.1251916759728076,269.8894534807463,-46.466518931007215,267.21562917848553,-44.61385045773042,2.673824302260755,-1.8526684732767933,55.09791179832192,18.188193373875905,214.79154168242437,-64.65471230488313,256.2715226359261,-37.262084663187636,69.72610197524557,45.79610147620585,14.38309913559618,-9.659208488991018,85.55307784320323,-47.624516444712214,70.0766122456547,-18.603668660848225,59.16185159356647,1.5734728006772798,55.09791179832192,18.188193373875905,10,9.07793253446417e-16,252.45981989377617,1.7906721049531842e-15,252.45981989377617,1.1102230246251565e-13,0.0,0.00822608758879606,1.1927827003754223,0.00822608758879606
0.1831095202070137,324.54439757307466,-10.078819284058081,285.267789645429,-38.101522755259424,285.267789645429,-38.101522755259424,0.0,0.0,70.0020726949607,26.751713653856356,215.26571695046826,-64.85323640911577,271.59155790763003,-28.857657238482233,38.569829074657115,28.437986979682112,14.383010590787515,-9.659149025257964,85.83043405664131,-47.7831741490083,70.21495691161682,-18.642023401117832,59.2203259822101,1.571961141010405,70.0020726949607,26.751713653856356,11,1.1705222472760263e-15,357.3387264181854,1.5470304714445843e-15,357.3387264181854,1.6653345369377348e-13,0.0,0.0,1.3161740142073626,0.0
0.18454006333363102,324.7860868168172,-8.536038933099032,283.9158885493626,-37.18694408059204,245.79864921866596,-12.939438379400997,38.117239330696634,-24.247505701191045,70.7366854065349,26.99964683113184,213.1792031428277,-64.18659091172393,270.4729462317727,-28.100927296963363,39.93023834869849,29.223964621902137,14.382902236345995,-9.659076258037805,84.93820203836674,-47.26426142791145,69.60851184451722,-18.484104710514895,58.632489259943746,1.5617752267024372,70.7366854065349,26.99964683113184,10,1.1584114761156175e-15,358.75670072736295,1.9857072857781767e-15,358.75670072736295,8.326672684688674e-14,0.0,0.12339131383194024,1.3079479266185665,0.12339131383194024
0.1859706064602483,323.85007144985747,-9.270290760076524,281.6867924367499,-38.73205819183721,245.8599975288359,-15.797709938328353,35.82679490791401,-22.93434825350886,68.01603710052244,25.669187071765286,213.6707553362275,-64.40124526360256,268.18057790547016,-29.60325728655323,41.286719454454904,29.99195672566766,14.382774089932427,-9.658990199190953,85.23988306018002,-47.43758311958149,69.74668296931884,-18.522557859767645,58.684189306728626,1.558895715746587,68.01603710052244,25.669187071765286,10,8.592808357920207e-16,335.8469955932459,1.0580224869210644e-15,335.8469955932459,1.1102230246251565e-13,0.0,0.1151652262431444,1.2997218390297707,0.1151652262431444
0.1874011495868656,324.3018655311423,-7.828371602477041,280.69694336068875,-37.97845108007246,247.5680525026024,-16.638093187884493,33.12889085808635,-21.340357892187967,68.81815148296586,25.93356274977254,211.87879187772296,-63.91201382984508,267.28105529490125,-28.91069072781022,42.638184063807586,30.741209988077408,14.382626172433525,-9.658890862744226,84.61746217929631,-47.09384931933796,69.1499751289773,-18.36730990646152,58.11135456944933,1.5491453959544188,68.81815148296586,25.93356274977254,10,7.957876547900735e-16,338.8926844673717,1.1655866063533221e-15,338.8926844673717,2.220446049250313e-13,0.0,0.10693913865434834,1.2914957514409746,0.10693913865434834
0.18883169271348288,325.1072599282269,-7.856513794385755,280.22050302145817,-38.77940985091061,249.42015844707706,-18.81500245139779,30.800344574381114,-19.964407399512822,67.8636188474959,25.352276833380877,212.35688417396227,-64.13168668429148,266.7412025381337,-29.66877001802112,43.98359888213471,31.47103448852394,14.382458507958521,-9.658778264888577,84.92107849115794,-47.26797359296559,69.29096927281712,-18.406311109318477,58.14483640998719,1.5425980179925816,67.8636188474959,25.352276833380877,10,1.0232609050355205e-15,317.33967360814853,8.07953247490334e-16,317.33967360814853,1.1102230246251565e-13,0.0,0.09871305106555228,1.2832696638521786,0.09871305106555228
0.19026223584010019,326.0594224384854,-6.268843431601169,279.7439378899621,-37.84045516486083,251.62611730610632,-19.501555439642573,28.117820583855803,-18.338899725218255,69.15688572187449,25.808642079604418,210.58705216808767,-63.649097244465295,266.35516588940743,-28.790993103187503,45.321985425242694,32.1808020955628,14.38227112383524,-9.65865242397646,84.30442606415443,-46.926912652440905,68.70474690713843,-18.253837260151478,57.57787919679479,1.5316526681271014,69.15688572187449,25.808642079604418,10,9.00533222040068e-16,320.6576209311811,1.0206798010057668e-15,320.6576209311811,1.1102230246251565e-13,0.0,0.09048696347675622,1.2750435762633825,0.09048696347675622
0.19169277896671746,323.44024760677473,-7.870415661734661,275.858165396065,-40.1743361948908,250.1089634935746,-23.276315533590605,25.74920190249037,-16.898020661300194,64.80315386200525,23.70101214555016,211.0550115340597,-63.87534834044094,262.40576380760893,-31.08184713995996,46.652419748560185,32.86994483874411,14.382064050605607,-9.658513360518807,84.61013593922031,-47.10199064017493,68.85260679552493,-18.29421051807895,57.59226879931448,1.5208528178129228,64.80315386200525,23.70101214555016,10,9.376211614954251e-16,301.1942513019632,1.866702140625902e-15,301.1942513019632,1.6653345369377348e-13,0.0,0.08226087588796038,1.2668174886745867,0.08226087588796038
0.19312332209333477,322.74347098386374,-7.0601875139347285,273.7495053012862,-39.97111109476796,250.66838243558553,-24.73074801351268,23.081122865700678,-15.240363081255282,64.45057395641787,23.431183608810045,209.29893134486835,-63.40229470357801,260.387601531692,-30.939779665182186,47.97403213015107,33.53795324842918,14.381837322020704,-9.658361097181725,84.00020878403684,-46.764221895051236,68.27864859298761,-18.144868200507158,57.0200739678439,1.5067953919803685,64.45057395641787,23.431183608810045,10,1.0076478744751045e-15,304.39885873018403,2.2959231613297933e-15,304.39885873018403,2.220446049250313e-13,0.0,0.07403478829916432,1.2585914010857904,0.07403478829916432
0.19455386521995208,320.1771729466392,-8.613232353143658,269.9353331680611,-42.213922435544276,249.26513003051267,-28.481756156566036,20.67020313754844,-13.73216627897824,60.17583043170423,21.421848343681965,209.75950273635692,-63.63577077922625,256.5095752624745,-33.13941136094263,49.286006709129396,34.18437466658175,14.381590975035278,-9.65819565878278,84.30774975753958,-46.9401699848849,68.43566505107185,-18.187306480812282,57.01608792774546,1.491705686470965,60.17583043170423,21.421848343681965,10,7.907336844834892e-16,286.7678320820368,1.0963634631079578e-15,286.7678320820368,2.220446049250313e-13,0.0,0.06580870071036804,1.2503653134969945,0.06580870071036804
0.19598440834656936,320.42600737875944,-7.443929535116261,268.79256513135675,-41.60821470958564,250.77718884627535,-29.5667164311962,18.015376285081402,-12.04149827838944,60.772816340278574,21.564646752280154,208.01974879107817,-63.17286146186579,255.45710124787666,-32.59472399431556,50.587581081081105,34.80881153148625,14.381325049801683,-9.65801707228695,83.70518019020066,-46.60612693352194,67.87554270494384,-18.04150778937033,56.43902589593365,1.474773261026499,60.772816340278574,21.564646752280154,10,1.3015270244846681e-15,289.8258106634925,9.07443744464317e-16,289.8258106634925,1.1102230246251565e-13,0.0,0.0575826131215722,1.2421392259081985,0.0575826131215722
0.19741495147318666,316.5849587475625,-9.495629078368822,263.72533679151945,-44.30549305530846,248.1656058322857,-33.84212000328273,15.559730959233747,-10.46337305202573,55.22250065143909,19.10268551799239,208.50283614008038,-63.408178573300845,250.32587330578036,-35.24872335087122,51.87804585211875,35.41091963930464,14.38103958966335,-9.657825366802241,84.014043565456,-46.78270412781793,68.04108998762445,-18.086225535535924,56.44770258699991,1.4607510900530158,55.22250065143909,19.10268551799239,10,1.02022951414872e-15,273.74270854560484,1.3961669788499614e-15,273.74270854560484,1.1102230246251565e-13,0.0,0.04935652553277614,1.2339131383194024,0.04935652553277614
0.19884549459980394,316.3189681090704,-8.579567603654795,262.09096799910446,-43.908311369936314,249.1742036215442,-35.16967352617746,12.91676437756027,-8.738637843758852,55.28929375648927,19.044097091110693,206.80167424261518,-62.95240846104697,248.78148931470852,-34.91235341541926,53.156744153214184,35.99040638533939,14.380734641147734,-9.657620573574926,83.41925313832128,-46.45268679652846,67.49679892872575,-17.9444193144393,55.88562217556815,1.4446976499207906,55.28929375648927,19.044097091110693,10,8.148892384998071e-16,276.65241980004527,7.874440561276309e-16,276.65241980004527,1.1102230246251565e-13,0.0,0.0411304379439803,1.2256870507306066,0.0411304379439803
0.20027603772642125,314.0509395842905,-9.962204178773256,258.62092349874854,-45.891059730439935,248.20704803833294,-38.80324574483339,10.413875460415596,-7.0878139856065445,51.29223558549789,17.294102281511066,207.3286879132507,-63.185162011951036,245.24745821386355,-36.85183044061057,54.42307111646822,36.5470289878218,14.38041025395872,-9.65740272598448,83.72888506567202,-46.62960269367034,67.67040702208728,-17.9914480827129,55.92939582549142,1.4358887644321854,51.29223558549789,17.294102281511066,10,1.0400948090505915e-15,261.8967775815286,1.242616627486936e-15,261.8967775815286,1.1102230246251565e-13,0.0,0.03290435035518402,1.2174609631418103,0.03290435035518402
0.20170658085303855,313.54828557928414,-9.187536469469485,256.7755789215848,-45.58961287184391,248.99431878073358,-40.26180439375881,7.781260140851202,-5.327808478085103,51.09553844533388,17.145175794711804,205.68004047625092,-62.734788666555744,243.49174578332622,-36.610957306924746,55.676473314989394,37.08059269699337,14.380066480968525,-9.657171859538114,83.14229948977352,-46.30388315880022,67.1422014640335,-17.853798977878718,55.395539522443904,1.422893470123178,51.09553844533388,17.145175794711804,10,8.89900550255797e-16,264.66137487862756,1.2096846383091119e-15,264.66137487862756,1.1102230246251565e-13,0.0,0.02467826276638796,1.2092348755530142,0.02467826276638796
0.20313712397965583,312.3768908777454,-10.13368713176223,254.42833308636858,-47.08948346739413,249.19971306054023,-43.48806042876322,5.228620025828349,-3.6014230386309123,48.180196725358854,15.87505047248694,206.24813636100976,-62.96453393988111,241.0807393314711,-38.06770811209134,56.91644816806523,37.59094899219409,14.379703378209065,-9.656928011864986,83.4534973631686,-46.48140365410261,67.3203926629102,-17.902324935185877,55.474246334930946,1.4191946494073946,48.180196725358854,15.87505047248694,10,1.2394425044831336e-15,251.0680476814419,1.0405010362240805e-15,251.0680476814419,3.3306690738754696e-13,0.0,0.01645217517759212,1.2010087879642184,0.01645217517759212
0.20456766710627314,311.8068469143533,-9.43798076045912,252.5432956779527,-46.8207421818974,249.93848256721583,-45.01589041264356,2.6048131107368704,-1.804851769253844,47.88925039118986,15.698776747706695,204.65404528676282,-62.51951892960406,239.28498259617524,-37.859303307362154,58.14254331331517,38.07799376961314,14.379321004862852,-9.6566712227101,82.87787874368664,-46.1612164589115,66.80470505976277,-17.76777111880795,54.97146148331343,1.4094686481153573,47.88925039118986,15.698776747706695,10,1.1266167413895623e-15,253.69158872409727,1.5812003634743575e-15,253.69158872409727,1.1102230246251565e-13,0.0,0.00822608758879606,1.1927827003754223,0.00822608758879606
0.20599821023289042,298.9860095577631,-16.92433354065382,266.1060770763,-39.66268775014828,266.1060770763,-39.66268775014828,0.0,0.0,60.86226440984649,23.085926870864917,205.2438126664535,-62.748614621013175,252.78446415952845,-30.658439313956734,31.822625974981356,23.390507307230706,14.37891942325333,-9.65640153392779,83.19229499430007,-46.34002216245864,66.98440555121063,-17.81677258544355,55.06711212094279,1.4081801268890146,60.86226440984649,23.085926870864917,11,9.1448224004646e-16,365.11623039717364,7.910940999130541e-16,365.11623039717364,1.1102230246251565e-13,0.0,0.0,1.3161740142073626,0.0
0.20742875335950772,299.05752315519095,-15.72508939601175,264.9213614347158,-38.89703707194374,227.81717303169435,-15.292184367794817,37.104188403021425,-23.604852704148925,61.44725899988424,23.266127191313544,203.4741024348315,-62.163164263257286,251.81618749692225,-30.039245912367335,32.862836959433984,23.97027550583049,14.378498698834695,-9.656118989474908,82.4042779737508,-45.87886387266634,66.47985226535576,-17.685061038415824,54.58997219572494,1.400760647824903,61.44725899988424,23.266127191313544,10,1.1216824915606044e-15,366.49156562204985,1.0781975967471994e-15,366.49156562204985,3.3306690738754696e-13,0.0,0.12339131383194024,1.3079479266185665,0.12339131383194024
0.208859296486125,298.3928173701872,-16.461632344819424,263.2874558698851,-40.2436648145125,228.39306699137038,-17.90479230318948,34.89438887851472,-22.338872511323018,59.20287689288343,22.162207777022047,204.08457897700163,-62.40587259153452,250.11578557461678,-31.340912929053786,33.898972895389086,24.535104219638054,14.378058900181296,-9.655823635403696,82.74032721590525,-46.07049561471517,66.660943832289,-17.734407923546794,54.68330792880738,1.3990309467274429,59.20287689288343,22.162207777022047,10,9.011105090421918e-16,343.30430264940065,2.2230765626930363e-15,343.30430264940065,1.1102230246251565e-13,0.0,0.1151652262431444,1.2997218390297707,0.1151652262431444
0.2102898396127423,298.63005613652825,-15.371198174117527,262.41703601361735,-39.6512015978833,230.11628394407379,-18.843221474268944,32.30075206954356,-20.807980123614357,59.80802015326111,22.343527497464095,202.60901586035624,-61.99472909534737,249.32204668635947,-30.800270036772986,34.930409351192374,25.08458738250967,14.377600098976366,-9.655515519854214,82.2184066463929,-45.78187684573511,66.16688346348957,-17.60545587215484,54.22372575047376,1.3926036225425875,59.80802015326111,22.343527497464095,10,9.791939894809152e-16,346.28205341859234,1.2892075626590396e-15,346.28205341859234,1.1102230246251565e-13,0.0,0.10693913865434834,1.2914957514409746,0.10693913865434834
0.2117203827393596,299.3599039180348,-15.53463400154212,262.1881861389544,-40.39402728333724,232.14079417889337,-20.916856091274866,30.04739196006102,-19.47717119206237,58.97652963555235,21.84785968208631,203.211656503402,-62.241886965423504,249.02621358193016,-31.497805280233592,35.956567966104224,25.61836597173801,14.377122370000397,-9.65519469304654,82.55762505607046,-45.97509623089285,66.35076635701277,-17.65536942361937,54.30326509031878,1.3885786890886962,58.97652963555235,21.84785968208631,10,8.372527388409276e-16,324.6098207279749,2.218194276140855e-15,324.6098207279749,1.1102230246251565e-13,0.0,0.09871305106555206,1.2832696638521783,0.09871305106555206
0.2131509258659769,299.9969461787221,-14.330564781653948,261.7293536913138,-39.65667561933586,234.268527972562,-21.74567200117494,27.460825718751806,-17.91100361816092,59.96366925124392,22.181724915590415,201.76568444006983,-61.83840053492624,248.64340452528094,-30.81182989355338,36.97691586232218,26.13612631917202,14.376625791118958,-9.65486120727259,82.04455517292327,-45.69105164625769,65.86738976625375,-17.529245430678795,53.85373950089281,1.3818965420102458,59.96366925124392,22.181724915590415,10,1.0524581171891534e-15,327.8855220261915,1.4810838824731096e-15,327.8855220261915,1.1102230246251565e-13,0.0,0.09048696347675622,1.2750435762633825,0.09048696347675622
0.2145814689925942,300.0947948487965,-14.824585997464428,260.8811495281337,-40.6981426717567,235.71952680697837,-24.185283970706138,25.16162272115531,-16.51285870105056,58.52138057965654,21.393003619259808,202.35976894847715,-62.09114629101653,247.7277193739788,-31.807669298192337,37.99096503154774,26.637598417615475,14.376110443269972,-9.654515116887563,82.38657836604128,-45.88572047569363,66.05654396984063,-17.58024954313977,53.916646612595244,1.3748237278168673,58.52138057965654,21.393003619259808,10,1.0701519844333984e-15,308.3891748173593,1.6995003309628184e-15,308.3891748173593,1.1102230246251565e-13,0.0,0.08226087588796016,1.2668174886745864,0.08226087588796016
0.21601201211921148,300.78882081785645,-13.67075042288413,260.4931420733501,-39.978760373112834,237.9127003225108,-25.068686470671565,22.5804417508393,-14.910073902441269,59.559037309211064,21.71878063132643,200.93410476413902,-61.697541004439245,247.41497270974241,-31.139148169389387,38.99827169766352,27.122554224806347,14.375576410450517,-9.654156478301092,81.88253756018669,-45.606426418761174,65.5848334533133,-17.45719788260437,53.466733750639044,1.3660832969262913,59.559037309211064,21.71878063132643,10,9.619759962848407e-16,311.57893680949485,1.3501727725561962e-15,311.57893680949485,2.220446049250313e-13,0.0,0.07403478829916432,1.2585914010857904,0.07403478829916432
0.21744255524582878,299.33979645802526,-14.856633711566499,258.1124360912836,-41.67919837245219,237.87949165923396,-28.23731495090243,20.232944432049635,-13.441883421549761,56.59705634431229,20.27839214680501,201.5153797469713,-61.95759051925721,244.96633702124026,-32.79365432881059,39.99843565708183,27.59080596721215,14.375023779703177,-9.653785349968063,82.22676679919128,-45.80226468121683,65.78149414587875,-17.509884225335803,53.50711880190125,1.354558387295441,56.59705634431229,20.27839214680501,10,1.0084662177010235e-15,293.93108503239023,1.2304009866073765e-15,293.93108503239023,1.1102230246251565e-13,0.0,0.06580870071036804,1.2503653134969945,0.06580870071036804
0.21887309837244606,299.4851783127794,-13.995694369285676,257.191290829465,-41.21973825049673,239.5359616593735,-29.418761552256257,17.655329170091505,-11.800976698240476,57.085768427097534,20.355435528482353,200.1055224023675,-61.57517377897912,244.11962607336295,-32.384497022712,40.991099598314655,28.042204445805407,14.374452641101838,-9.653401792379087,81.73180488662078,-45.52781171716474,65.3226492461872,-17.39023840604702,53.05106826955953,1.3428763442326357,57.085768427097534,20.355435528482353,10,7.747231776064268e-16,296.99172054329864,8.337823199179573e-16,296.99172054329864,1.1102230246251565e-13,0.0,0.0575826131215722,1.2421392259081985,0.0575826131215722
0.22030364149906337,295.72681147152235,-16.114520684580548,252.51692636164876,-43.81955058765786,237.25996034702064,-33.55969529496133,15.25696601462812,-10.259855292696528,51.823773324776205,18.019920904443552,200.69315303687256,-61.83947149210141,239.37699998148145,-34.93815216244144,41.97594840230391,28.476637345911513,14.373863087736979,-9.653005868050618,82.07752649645477,-45.72445538689946,65.52758812384046,-17.444990894973802,53.08803841657734,1.3299747897718603,51.823773324776205,18.019920904443552,10,8.487368952481101e-16,280.90236125040053,1.060925677171573e-15,280.90236125040053,1.1102230246251565e-13,0.0,0.04935652553277614,1.2339131383194024,0.04935652553277614
0.22173418462568067,295.8913319916126,-15.282252838691882,251.63170589025813,-43.35534960914657,238.950705030803,-34.77616878396978,12.681000859455139,-8.579180825176792,52.31771351595996,18.110821027250147,199.3139923742982,-61.46617063639674,238.56536835087317,-34.523682750325776,42.952708425038885,28.894027553148682,14.373255215700532,-9.652597641514784,81.59163980240497,-45.45488655946265,65.0833711111638,-17.329160376759425,52.63898146072945,1.317876299825329,52.31771351595996,18.110821027250147,10,8.552344843065737e-16,283.8246157970833,2.2188169748131944e-15,283.8246157970833,1.1102230246251565e-13,0.0,0.04113043794398008,1.2256870507306064,0.04113043794398008
0.22316472775229795,292.16746108485427,-17.32654461508152,247.00844161723768,-45.846630348721234,236.77928407314383,-38.884515645767024,10.229157544093852,-6.96211470295421,47.08112608461674,15.884440769807213,199.92731553262092,-61.73107111852843,233.87368519681152,-36.96869891317786,43.92114676397256,29.294331477405205,14.37262912407021,-9.652177179308865,81.93813869942406,-45.65195410233755,65.29691890360486,-17.386190192183587,52.69225792959202,1.3070731759927057,47.08112608461674,15.884440769807213,10,9.133435569447813e-16,269.0689789159347,1.5326977134120161e-15,269.0689789159347,1.1102230246251565e-13,0.0,0.03290435035518402,1.2174609631418103,0.03290435035518402
0.22459527087891526,291.9124684959729,-16.692883671747616,245.7214068394834,-45.547434619634544,238.06852154112033,-40.30751511526255,7.65288529836306,-5.239919504371997,47.130437234804006,15.817846392247645,198.59096960467937,-61.36528101188219,232.6594130713487,-36.71867650850584,44.881070509730854,29.67753738672267,14.371984914893355,-9.651744549964448,81.46142006781157,-45.38734024429912,64.8680416904193,-17.274411153895226,52.26150784644848,1.2964703863121727,47.130437234804006,15.817846392247645,10,8.14332063941045e-16,271.85223062234036,1.2856048998293143e-15,271.85223062234036,1.249000902703301e-13,0.0,0.02467826276638796,1.2092348755530142,0.02467826276638796
0.22602581400553254,289.69896129707723,-18.10718218354662,242.62567030223713,-47.37453277203349,237.48068956790314,-43.83071715962146,5.144980734333984,-3.5438156124120326,43.38808903395545,14.254308196552508,199.23758126828164,-61.62884096858599,229.49531261931475,-38.49954611242873,45.83232598459221,30.043663752878352,14.371322693170304,-9.651299823996238,81.80919950542271,-45.58495410241827,65.08748547950763,-17.333119538760933,52.34089628335131,1.289232672593215,43.38808903395545,14.254308196552508,10,9.276247462246245e-16,258.26040873505633,1.4300416582652232e-15,258.26040873505633,1.1102230246251565e-13,0.0,0.01645217517759212,1.2010087879642184,0.01645217517759212
0.22745635713214984,289.2168278717263,-17.59750615674482,241.12976494056142,-47.165762782284645,238.56330768615027,-45.3874871423688,2.566457254411148,-1.7782756399158473,43.17945995548861,14.104082256140366,197.9503049850728,-61.269845038424975,228.07138733569388,-38.33942069323632,46.774797969195156,30.392757610382105,14.37064256683728,-9.650843073890604,81.34397770003515,-45.32629673534712,64.67131148573043,-17.22452493382955,51.93501579930721,1.280976630751681,43.17945995548861,14.104082256140366,10,8.310953434423161e-16,260.90693982121394,6.722354280672775e-16,260.90693982121394,1.1102230246251565e-13,0.0,0.00822608758879606,1.1927827003754223,0.00822608758879606
0.22888690025876712,278.187768002691,-24.04710036304194,252.0009981905978,-41.46847166173606,252.0009981905978,-41.46847166173606,0.0,0.0,53.377624939759194,20.063901625659454,198.62337325083863,-61.53237328739553,238.8745385933927,-32.596090454957306,24.943284762549467,18.1993644660091,14.369944646748808,-9.650374374093735,81.69425235837822,-45.52492228248697,64.89356482015548,-17.28400012938399,52.035556072304914,1.2765491244754585,53.377624939759194,20.063901625659454,11,1.0758518852722532e-15,383.4161660337094,1.0813442848218976e-15,383.4161660337094,1.1102230246251565e-13,0.0,0.0,1.3161740142073626,0.0
0.23031744338538443,278.1702433797471,-23.14437395298424,251.0106068496524,-40.87761757562038,214.39913090993286,-17.584577177923165,36.611475939719526,-23.29304039769721,53.81242545582851,20.18056913291707,197.1981813938239,-61.05818670853742,238.0614687044069,-32.1252263080722,25.739545628680585,18.63074615608747,14.369229046659616,-9.649893800999504,81.05452741997846,-45.15023271714249,64.48916073230146,-17.178430737732032,51.65449324154395,1.2704767463370956,53.81242545582851,20.18056913291707,10,8.873368604782007e-16,384.82732977508124,1.7336984622128835e-15,384.82732977508124,1.1102230246251565e-13,0.0,0.12339131383194024,1.3079479266185665,0.12339131383194024
0.23174798651200174,277.3981256906974,-23.976047155597403,249.5158217041821,-42.17837880689129,215.06516876893582,-20.12226017094551,34.45065293524627,-22.05611863594578,51.61739447538934,19.15262851373,197.89842722879274,-61.33100732062128,236.49566024890777,-33.3779677595615,26.533969558583493,19.05132203690113,14.368495883206132,-9.649401432937033,81.42265053233935,-45.35952987682902,64.71318518214896,-17.2384358908545,51.76259151430443,1.2669584470622368,51.61739447538934,19.15262851373,10,8.752154390644603e-16,360.58492124717566,1.4073022566014267e-15,360.58492124717566,1.1102230246251565e-13,0.0,0.11516522624314418,1.2997218390297705,0.11516522624314418
0.23317852963861901,277.53078036237775,-23.15836352042194,248.79708572630287,-41.73031095635838,216.86336284207258,-21.157718283923572,31.933722884230292,-20.57259267243481,52.068064419691495,19.27352726577635,196.72902130661137,-61.00383822213473,235.83678442171455,-32.970351261862874,27.326250664775742,19.460885091598858,14.367745275887449,-9.64889735015792,81.00752600100876,-45.13032079909546,64.3198079548126,-17.135804346914636,51.401687350789985,1.2622869238753935,52.068064419691495,19.27352726577635,10,8.656747386184915e-16,363.651101699738,1.031292357157796e-15,363.651101699738,1.1102230246251565e-13,0.0,0.10693913865434834,1.2914957514409746,0.10693913865434834
0.23460907276523632,278.122304948179,-23.438714095192356,248.6709400033905,-42.457848398289,218.9487379340812,-23.19065069996293,29.722202069309304,-19.267197698326072,51.2440849650051,18.82094191197816,197.42685503838538,-61.27879031026714,235.63920864830632,-33.649593188251345,28.11611895282688,19.85926072788214,14.366977347045847,-9.64838163482315,81.37730106997661,-45.340418286799945,64.54537708503082,-17.196276788600862,51.50417688337798,1.2579047651336595,51.2440849650051,18.82094191197816,10,1.0333849318868825e-15,341.0560015419721,1.0090719647986593e-15,341.0560015419721,1.1102230246251565e-13,0.0,0.09871305106555206,1.2832696638521783,0.09871305106555206
0.2360396158918536,278.6143816645377,-22.517303801165315,248.31743430270672,-41.88404036886192,221.1162847438971,-24.141778895531672,27.201149558809618,-17.742261473330245,52.027013533817616,19.07453862366728,196.29042076888913,-60.958578992529226,235.34484980608545,-33.11575468710376,28.903339636605363,20.246305256928164,14.36619222184687,-9.647854370989718,80.970860394378,-45.11570873427871,64.1625366684784,-17.096531172999672,51.15702370603273,1.2536609147491689,52.027013533817616,19.07453862366728,10,1.0589666289238181e-15,344.44609258520546,2.555582875352492e-15,344.44609258520546,1.1102230246251565e-13,0.0,0.09048696347675622,1.2750435762633825,0.09048696347675622
0.2374701590184709,277.0902080410955,-23.774032220229596,246.08143269040767,-43.56541434946891,221.14486284358992,-27.199782397156582,24.936569846817747,-16.365631952312327,49.10336525370036,17.67114862746095,196.97806743670733,-61.2365629769299,233.03710556644126,-34.748620962290985,29.687712446395313,20.621904386658304,14.365390028258911,-9.647315644596917,81.34164395034685,-45.32627759339297,64.39037415871914,-17.15762868584791,51.246049327641366,1.2473433023109664,49.10336525370036,17.67114862746095,10,9.429410034103549e-16,324.15496068364456,1.1661981119165879e-15,324.15496068364456,9.71445146547012e-14,0.0,0.08226087588796016,1.2668174886745864,0.08226087588796016
0.2389007021450882,277.2418962165427,-23.04953601026128,245.39420458367084,-43.16608622794675,222.98465752371777,-28.36851481686857,22.40954705995307,-14.79757141107818,49.5298083106071,17.7589901817653,195.86439627306376,-60.92507640971206,232.40825438839443,-34.388742197517246,30.46907093111591,20.985971730708297,14.364570897032358,-9.646765543452336,80.94397317599503,-45.10617266055212,64.01809832127154,-17.060816070728222,50.9023247757972,1.2419123215682717,49.5298083106071,17.7589901817653,10,8.868749350046319e-16,327.46971692455304,1.4104839320538434e-15,327.46971692455304,1.1102230246251565e-13,0.0,0.0740347882991641,1.2585914010857904,0.0740347882991641
0.2403312452717055,277.6621717453894,-23.47068371424881,245.1090074725616,-43.988887519790254,225.01953597349328,-30.642083237479042,20.08947149906831,-13.346804282311211,48.57759438979595,17.219046554541848,196.5314130827656,-61.20793407433207,232.05115502785685,-35.16292689141463,31.247281755854253,21.338447334383357,14.36373496167828,-9.646204157217543,81.31496098078263,-45.316784360294236,64.249685059525,-17.12289161195636,50.966767042457974,1.2317418979185035,48.57759438979595,17.219046554541848,10,9.1736279659648e-16,309.10798654582806,2.3528540816857398e-15,309.10798654582806,1.1102230246251565e-13,0.0,0.06580870071036804,1.2503653134969945,0.06580870071036804
0.2417617883983228,277.98116320237455,-22.734549398680297,244.59629349739305,-43.55525310949936,227.0417574734848,-31.82148840014861,17.55453602390824,-11.733764709350751,49.16309668691464,17.3512205793377,195.4331968104784,-60.90647368883705,231.59603684803548,-34.76821404009162,32.02224399589237,21.67929621880481,14.362882358446676,-9.645631577393486,80.92602611890229,-45.10131042054159,63.88851403831016,-17.02917230840606,50.61865665326595,1.2240090401105945,49.16309668691464,17.3512205793377,10,9.814998364612596e-16,312.2975757550722,1.604386074473305e-15,312.2975757550722,2.220446049250313e-13,0.0,0.05758261312157198,1.2421392259081983,0.05758261312157198
0.24319233152494008,277.9300114210049,-23.376887466493915,243.8462209385345,-44.5759709828872,228.66969814447782,-34.370111774217165,15.176522794056666,-10.205859208670034,47.75259641639719,16.61618441069683,196.0936245221373,-61.19215539358403,230.7741097663173,-35.740346513570174,32.79388842838338,22.00850694438181,14.36201322630424,-9.64504789730555,81.29635924773032,-45.31149446990686,64.12559698734995,-17.092676093012436,50.67166828705703,1.2120151693352739,47.75259641639719,16.61618441069683,10,8.375702648420097e-16,295.56052431686385,1.2243168926120878e-15,295.56052431686385,1.1102230246251565e-13,0.0,0.04935652553277614,1.2339131383194024,0.04935652553277614
0.24462287465155738,278.2474801900388,-22.699399396077784,243.33944072305576,-44.17824586165881,230.70774715668597,-35.63236580417288,12.63169356636979,-8.545880057485931,48.31638569596348,16.720720289054945,195.02305502709225,-60.89896615071372,230.3241756603239,-35.38103637865635,33.56217682280314,22.326090194666957,14.361127706911773,-9.64445321208839,80.91608167467203,-45.10064074370431,63.77739614928528,-17.002411316571866,50.32957720313497,1.204085909562444,48.31638569596348,16.720720289054945,10,8.815498646754904e-16,298.6115957486064,2.078957442276036e-15,298.6115957486064,1.1102230246251565e-13,0.0,0.04113043794398008,1.2256870507306064,0.04113043794398008
0.24605341777817466,278.0061597162392,-23.433619690838036,242.40565837286155,-45.26744686847985,232.21228373182652,-38.32965728227899,10.193374641035035,-6.937789586200864,46.70918447980645,15.917310489165622,195.6964738930551,-61.18475735764548,229.31883254036526,-36.421849453748564,34.32710123127292,22.6320773815809,14.360225944601002,-9.643847618670371,81.28493977337953,-45.30994290940394,64.02232101859082,-17.067875097380227,50.38921310108475,1.1930606491386726,46.70918447980645,15.917310489165622,10,1.1626862400358964e-15,283.2629098796099,1.5159582455588945e-15,283.2629098796099,1.1102230246251565e-13,0.0,0.03290435035518402,1.2174609631418103,0.03290435035518402
0.24748396090479197,278.2461702728979,-22.842820052006253,241.8288453151912,-44.93375452551483,234.1921510147038,-39.70490866460918,7.636694300487392,-5.2288458609056505,47.16341919138116,15.964728186623546,194.66542612381002,-60.89848271213836,228.79817890672567,-36.12610810916718,35.08868327982112,22.926519272918732,14.359308086351135,-9.643231215757812,80.91336193201333,-45.10374421960083,63.68836995190453,-16.98136271823881,50.06369423989214,1.1866242257012942,47.16341919138116,15.964728186623546,10,9.434812398330102e-16,286.1729707017968,7.874341000008618e-16,286.1729707017968,9.71445146547012e-14,0.0,0.02467826276638796,1.2092348755530142,0.02467826276638796
0.24891450403140927,276.6128063662979,-24.107270313527128,239.50912991615024,-46.52981053783709,234.37328791675986,-42.992285983972934,5.135841999390379,-3.5375245538641593,44.14372813613909,14.652734320923336,195.36540178001118,-61.18254485876048,226.40745862291362,-37.674150852686424,35.846973461619385,23.20948464297818,14.35837428176486,-9.64260410381888,81.28140466628646,-45.31233685141713,63.939721536993304,-17.048427420347615,50.14427557673143,1.178219413004264,44.14372813613909,14.652734320923336,10,1.2533846230897428e-15,272.03340968532075,1.431960278780028e-15,272.03340968532075,1.1102230246251565e-13,0.0,0.0164521751775919,1.2010087879642182,0.0164521751775919
0.2503450471580266,277.12824653884275,-23.460420718588782,239.2148924984381,-46.11763354584244,236.64946028000682,-44.34006769351156,2.565432218431283,-1.7775658523308806,44.83237105251077,14.78485522582606,194.38252144592732,-60.902488771668516,226.16877142260026,-37.29951328059997,36.602050433198514,23.481058947078406,14.357424683043993,-9.641966385067219,80.9212380613327,-45.11194613871444,63.61761515915426,-16.964744057984795,49.84366822544034,1.1742014250307449,44.83237105251077,14.78485522582606,10,9.622874760524455e-16,274.8039880777743,1.5002882109210096e-15,274.8039880777743,1.1102230246251565e-13,0.0,0.008226087588795838,1.1927827003754221,0.008226087588795838
0.25177559028464386,266.18572156512397,-29.5386616066291,246.28298971513644,-42.22464836550134,246.28298971513644,-42.22464836550134,0.0,0.0,51.17136899100349,18.959687945980207,195.111620724133,-61.184336311481545,233.16667396299547,-33.35906144494592,18.662588157163892,13.461718001762106,14.35645944496463,-9.641318163445286,81.28988273504211,-45.32038225325613,63.8728889726705,-17.03263259006893,49.94884901642034,1.1686785318435113,51.17136899100349,18.959687945980207,11,1.1624360172031879e-15,414.6189797008226,1.3487986416382428e-15,414.6189797008226,1.1102230246251565e-13,0.0,0.0,1.3161740142073626,0.0
