time_s,total_vertical_force_n,total_pitch_moment_nm,raw_bem_vertical_force_n,raw_bem_pitch_moment_nm,resolved_station_bem_vertical_force_n,resolved_station_bem_pitch_moment_nm,transom_extrapolation_vertical_force_n,transom_extrapolation_pitch_moment_nm,pre_chine_bem_vertical_force_n,pre_chine_bem_pitch_moment_nm,post_chine_bem_vertical_force_n,post_chine_bem_pitch_moment_nm,bem_vertical_force_n,bem_pitch_moment_nm,front_vertical_force_n,front_pitch_moment_nm,transom_vertical_force_n,transom_pitch_moment_nm,longitudinal_bin_aft_post_chine_vertical_force_n,longitudinal_bin_aft_post_chine_pitch_moment_nm,longitudinal_bin_middle_post_chine_vertical_force_n,longitudinal_bin_middle_post_chine_pitch_moment_nm,longitudinal_bin_forward_post_chine_vertical_force_n,longitudinal_bin_forward_post_chine_pitch_moment_nm,longitudinal_bin_pre_chine_vertical_force_n,longitudinal_bin_pre_chine_pitch_moment_nm,active_plane_count,potential_bvp_relative_residual,pressure_bvp_relative_residual,free_surface_pressure_max_abs_pa,contact_constraint_max_abs_m,aftmost_resolved_station_x_m,foremost_resolved_station_x_m,transom_coverage_gap_m
0.0,171.99214195009029,0.3669009267285599,157.02389905864854,-8.185054966867767,157.02389905864854,-8.185054966867767,0.0,0.0,27.766720207726507,9.58383218393602,129.25717885092206,-17.768887150803806,157.02389905864854,-8.185054966867767,14.968242891441749,8.551955893596327,0.0,0.0,48.695321444790736,-17.268453195122216,41.2498499715615,-4.949426517668375,39.312007434569814,4.448992561986788,27.766720207726507,9.58383218393602,11,9.58878519139384e-16,1.3193162409310722e-15,2.220446049250313e-13,8.326672684688674e-17,0.0,0.954,0.0
0.0027011237483419892,175.08674682504562,0.6360778433282217,158.26680560934844,-8.859633168248806,139.466111037273,-0.8475035224376342,18.80069457207543,-8.012129645811171,27.85327383717567,9.474796980901917,130.41353177217277,-18.33443014915072,158.26680560934844,-8.859633168248806,16.819941215697185,9.495711011577027,0.0,0.0,49.591326697717264,-17.575521674992594,42.406208205027454,-5.076994947960891,38.41599686942806,4.318086473802765,27.85327383717567,9.474796980901917,10,1.109261429756964e-15,1.2868620363501672e-15,1.1102230246251565e-13,0.0,0.08347499999999997,0.9420749999999999,0.08347499999999997
0.0054022474966839784,181.22728962766314,1.0681001419631695,162.45421849038223,-9.402845583277909,145.80634528413577,-2.2107769124285,16.64787320624646,-7.192068670849409,27.716719598029336,9.332073806926052,134.7374988923529,-18.734919390203963,162.45421849038223,-9.402845583277909,18.77307113728092,10.470945725241078,0.0,0.0,50.97579728684815,-18.066809109721653,43.846435041080184,-5.239490417124861,39.91526656442459,4.571380136642546,27.716719598029336,9.332073806926052,10,1.4046838528132207e-15,1.6772799513089767e-15,2.220446049250313e-13,0.0,0.07155,0.9301499999999999,0.07155
0.008103371245025968,184.2270818153995,0.7415454416835097,163.40154437765582,-10.732905020937395,149.09037429984335,-4.466344852130462,14.311170077812477,-6.266560168806933,25.978990053729717,8.643878281035773,137.42255432392608,-19.376783301973134,163.40154437765582,-10.732905020937395,20.825537437743673,11.474450462620904,0.0,0.0,52.2868233692333,-18.533627408904536,45.06444207788893,-5.383260874349528,40.07128887680387,4.540104981280912,25.978990053729717,8.643878281035773,10,1.1154391772150433e-15,1.7459012707554597e-15,1.1102230246251565e-13,0.0,0.05962499999999982,0.9182249999999998,0.05962499999999982
0.010804494993367957,189.8815799923055,1.5021336284706397,166.90653865276215,-11.000827630999794,155.16075744882926,-5.788496464474363,11.745781203932893,-5.212331166525431,26.823142045886947,8.765374046854461,140.08339660687523,-19.766201677854248,166.90653865276215,-11.000827630999794,22.97504133954333,12.502961259470434,0.0,0.0,53.31183374769907,-18.899977318659516,45.93307644905895,-5.489439978663734,40.83848641011721,4.623215619468997,26.823142045886947,8.765374046854461,10,1.080081787333191e-15,1.7738793762592964e-15,1.1102230246251565e-13,0.0,0.047699999999999854,0.9062999999999999,0.047699999999999854
0.013505618741709946,193.17359368411155,1.7058542923689544,167.95450891433893,-11.84731441589399,158.96135184458254,-7.8034478147422845,8.993157069756393,-4.043866601151706,25.217187367194672,8.124783876786838,142.7373215471443,-19.972098292680855,167.95450891433893,-11.84731441589399,25.219084769772635,13.553168708262945,0.0,0.0,54.06689040631015,-19.171156990697053,46.51357258486354,-5.561655441418601,42.1568585559706,4.760714139434807,25.217187367194672,8.124783876786838,10,1.2565001423268022e-15,1.4028741031436757e-15,2.220446049250313e-13,0.0,0.03577499999999989,0.8943749999999999,0.03577499999999989
0.016206742490051936,193.65631416845747,1.624868595249728,166.1013390102597,-12.99685843611583,160.00856693203684,-10.221142832858817,6.0927720782228505,-2.7757156032570123,23.114945309683925,7.329397019437277,142.98639370057577,-20.326255455553117,166.1013390102597,-12.99685843611583,27.554975158197767,14.621727031365557,0.0,0.0,54.57421909526933,-19.354129959561384,46.861684540410124,-5.604387933713035,41.550490064896316,4.632262437721298,23.114945309683925,7.329397019437277,10,1.1029929993251585e-15,1.3701301127784872e-15,1.1102230246251565e-13,0.0,0.023849999999999927,0.88245,0.023849999999999927
0.018907866238393925,194.87452671337044,2.2490613692975483,164.89469595532273,-13.456201879933033,161.81087703147722,-12.032995385175695,3.083818923845513,-1.4232064947573377,23.06811949625189,7.2214266913090235,141.82657645907082,-20.677628571242046,164.89469595532273,-13.456201879933033,29.97983075804771,15.705263249230581,0.0,0.0,54.87046293699419,-19.46159052564274,47.03230832976302,-5.624323284964653,39.9238051923136,4.408285239365362,23.06811949625189,7.2214266913090235,10,1.1429383395032982e-15,1.0282495115714677e-15,1.1102230246251565e-13,0.0,0.011924999999999963,0.8705249999999999,0.011924999999999963
0.021608989986735914,190.5670052903414,-0.01773816092555691,175.752856275103,-8.88878646854765,175.752856275103,-8.88878646854765,0.0,0.0,32.813692804758624,11.617291775189353,142.93916347034434,-20.506078243736994,175.752856275103,-8.88878646854765,14.814149015238405,8.871048307622093,0.0,0.0,54.99692002945818,-19.508095588750013,47.06809550987637,-5.627751328603239,40.8741479310098,4.629768673616258,32.813692804758624,11.617291775189353,11,1.4525775096553312e-15,1.1498574197016924e-15,1.1102230246251565e-13,3.469446951953614e-18,0.0,0.9813747604322127,0.0
0.024310113735077903,190.57421689069258,0.4162020020619792,173.96521448662045,-9.416776537828667,153.1467219366917,-0.5444854021116328,20.81849254992875,-8.872291135717035,31.290445093192126,11.020874894971442,142.6747693934283,-20.437651432800095,173.96521448662045,-9.416776537828667,16.609002404072115,9.832978539890647,0.0,0.0,54.8365225947649,-19.438865381881254,46.998506928715955,-5.619619294166803,40.839739869947465,4.620833243247954,31.290445093192126,11.020874894971442,10,1.2040658216363928e-15,1.959418736266486e-15,1.1102230246251565e-13,0.0,0.08347499999999997,0.9694497604322128,0.08347499999999997
0.02701123748341989,191.8782333969044,1.2093294333060882,173.3833930271515,-9.614418620640336,155.45229508100152,-1.8677561475953723,17.931097946149976,-7.746662473044964,30.89035809366019,10.81437406762981,142.49303493349132,-20.428792688270157,173.3833930271515,-9.614418620640336,18.49484036975289,10.823748053946424,0.0,0.0,54.77742613887665,-19.42132341832217,46.832917652805975,-5.603415915375496,40.88269114180868,4.595946645427517,30.89035809366019,10.81437406762981,10,1.3642335601381213e-15,1.6797721843750173e-15,1.1102230246251565e-13,0.0,0.07155,0.9575247604322128,0.07155
0.02971236123176188,193.53695801698964,2.001137573404769,173.0681099664769,-9.838727259997214,158.07295364694735,-3.27253413816355,14.995156319529542,-6.566193121833663,30.557976354559365,10.48178028179273,142.51013361191752,-20.320507541789944,173.0681099664769,-9.838727259997214,20.468848050512747,11.839864833401982,0.0,0.0,54.643971782698635,-19.376799130867067,46.61232764661001,-5.581794560466996,41.253834182608855,4.6380861495441295,30.557976354559365,10.48178028179273,10,9.266397166722872e-16,1.6362914893685296e-15,1.1102230246251565e-13,0.0,0.05962499999999982,0.9455997604322128,0.05962499999999982
0.03241348498010387,194.23421946239222,2.472975871875427,171.7061813304745,-10.404836801132959,159.67955293268002,-5.067822338868282,12.026628397794468,-5.337014462264676,28.637597314783893,9.707599436495098,143.0685840156906,-20.11243623762806,171.7061813304745,-10.404836801132959,22.528038131917732,12.877812673008386,0.0,0.0,54.45734808599606,-19.312870619568276,46.38673237822914,-5.557407733805235,42.224503551465375,4.757842115745461,28.637597314783893,9.707599436495098,10,1.2367828766578782e-15,1.5204771756313872e-15,2.220446049250313e-13,0.0,0.047699999999999854,0.9336747604322128,0.047699999999999854
0.03511460872844586,194.73882390156493,3.302499668914031,170.0695661293204,-10.631561176460437,161.03292101969717,-6.568125572450313,9.036645109623237,-4.063435604010124,28.516215557888046,9.56291515615255,141.55335057143236,-20.194476332612986,170.0695661293204,-10.631561176460437,24.669257772244528,13.934060845374468,0.0,0.0,54.23463586410099,-19.235596068795697,46.18365242781378,-5.532565774188136,41.1350622795176,4.573685510370847,28.516215557888046,9.56291515615255,10,9.726121934212109e-16,1.529021943469444e-15,1.1102230246251565e-13,0.0,0.03577499999999989,0.9217497604322128,0.03577499999999989
0.03781573247678785,194.86631089452618,3.8813218642527865,167.97711493486995,-11.123751888536546,161.9444291281943,-8.375408894932235,6.032685806675659,-2.748342993604311,27.316581663682797,8.958067248551817,140.66053327118715,-20.081819137088374,167.97711493486995,-11.123751888536546,26.88919595965623,15.005073752789333,0.0,0.0,53.99176034282032,-19.150322043402642,46.002980028999445,-5.508046026738324,40.665792899367396,4.576548933052585,27.316581663682797,8.958067248551817,10,1.2027784103108657e-15,2.2645185302082082e-15,1.1102230246251565e-13,0.0,0.023849999999999927,0.9098247604322127,0.023849999999999927
0.040516856225129835,194.5748337926293,4.38779292702548,165.39044251225198,-11.699527606119503,162.3709136674254,-10.305991710357347,3.019528844826567,-1.393535895762156,25.613502706389852,8.312851944292017,139.77693980586213,-20.012379550411524,165.39044251225198,-11.699527606119503,29.184391280377323,16.087320533144982,0.0,0.0,53.737991721765994,-19.060472447110826,45.83016313594137,-5.484202593302655,40.20878494815477,4.53229549000195,25.613502706389852,8.312851944292017,10,9.758998728305536e-16,1.7899703033303815e-15,1.1102230246251565e-13,0.0,0.011924999999999963,0.8978997604322128,0.011924999999999963
0.04321797997347183,189.94438091820683,2.349247191803265,175.46706298841914,-6.706834826638882,175.46706298841914,-6.706834826638882,0.0,0.0,36.09568521379546,13.177058039890365,139.37137777462368,-19.88389286652925,175.46706298841914,-6.706834826638882,14.477317929787702,9.056082018442147,0.0,0.0,53.47958470751086,-18.968452921652226,45.648300998296804,-5.460762602657489,40.24349206881601,4.5453226577804635,36.09568521379546,13.177058039890365,11,1.0903947336591513e-15,1.0902063561858456e-15,2.220446049250313e-13,3.469446951953614e-18,0.0,1.0079787111317735,0.0
0.04591910372181382,189.63221772170021,2.8446366278785966,173.4489633307464,-7.167978316993313,153.305582420848,1.4165091146896458,20.14338090989841,-8.584487431682959,34.54633779179015,12.539099158177514,138.90262553895624,-19.70707747517082,173.4489633307464,-7.167978316993313,16.183254390953806,10.01261494487191,0.0,0.0,53.08619395597293,-18.81675919630277,45.44967996593941,-5.437486134989326,40.366751617043896,4.547167856121277,34.54633779179015,12.539099158177514,10,1.6986794773832712e-15,2.2654142986173417e-15,2.220446049250313e-13,0.0,0.08347499999999997,0.9960537111317735,0.08347499999999997
0.048620227470155805,191.76275379646455,3.897145960185883,173.79467972157045,-7.096882249185555,156.50723380105592,0.3716082872207238,17.28744592051453,-7.468490536406279,34.29146269263277,12.365438313577215,139.50321702893766,-19.46232056276277,173.79467972157045,-7.096882249185555,17.968074074894115,10.994028209371438,0.0,0.0,52.86711852598323,-18.740874963048856,45.237817941854615,-5.414591789894994,41.3982805610998,4.6931461901810785,34.29146269263277,12.365438313577215,10,1.4955467546064827e-15,1.890190558867379e-15,2.220446049250313e-13,0.0,0.07154999999999978,0.9841287111317736,0.07154999999999978
0.0513213512184978,193.09578420155117,4.687612289068529,173.2673543177032,-7.309041502577372,158.84284425914885,-0.9928044585739286,14.424510058554347,-6.316237044003444,34.12301888486956,12.057463141227691,139.14433543283366,-19.366504643805087,173.2673543177032,-7.309041502577372,19.82842988384797,11.996653791645901,0.0,0.0,52.646861385624064,-18.664242133962993,45.044616351840965,-5.392805196400943,41.452857695368614,4.690542686558864,34.12301888486956,12.057463141227691,10,1.1736363743350679e-15,1.8817000607861115e-15,1.1102230246251565e-13,0.0,0.05962499999999982,0.9722037111317736,0.05962499999999982
0.05402247496683978,190.83818888143213,4.580364147284186,169.0773439581968,-8.436470280958119,157.52261314451607,-3.3089155282264073,11.55473081368072,-5.127554752731712,31.774669810990794,11.069745312777508,137.302674147206,-19.506215593735618,169.0773439581968,-8.436470280958119,21.76084492323534,13.016834428242305,0.0,0.0,52.42681975285954,-18.587432423281378,44.887451046630574,-5.372833767151317,39.988403347715874,4.45405059669708,31.774669810990794,11.069745312777508,10,1.3926544499199098e-15,1.98186156377298e-15,1.1102230246251565e-13,0.0,0.047699999999999854,0.9602787111317737,0.047699999999999854
0.056723598715181775,191.98049079368397,5.58655693539934,168.21876948257275,-8.46437639438335,159.54084546505058,-4.5622664510864155,8.677924017522173,-3.902109943296935,31.886551262986508,11.02888936507512,136.33221821958625,-19.493265759458474,168.21876948257275,-8.46437639438335,23.76172131111122,14.05093332978269,0.0,0.0,52.20859956551114,-18.511013995835203,44.75691435425483,-5.354597906725857,39.36670429982029,4.3723461431025825,31.886551262986508,11.02888936507512,10,1.173443354206036e-15,1.102780440937198e-15,1.1102230246251565e-13,0.0,0.03577499999999989,0.9483537111317736,0.03577499999999989
0.05942472246352376,191.50222242337637,5.8519847322281695,165.67487315429543,-9.243359000075088,159.88122291939308,-6.6039218535477175,5.793650234902344,-2.6394371465273707,29.791066513840786,10.159797077055941,135.88380664045462,-19.403156077131015,165.67487315429543,-9.243359000075088,25.827349269080933,15.095343732303258,0.0,0.0,51.99636842696694,-18.436136145520948,44.63158872629049,-5.336889073021872,39.25584948719719,4.369869141411815,29.791066513840786,10.159797077055941,10,1.3053706344911544e-15,1.0785561306456284e-15,2.220446049250313e-13,0.0,0.023849999999999927,0.9364287111317736,0.023849999999999927
0.06212584621186575,194.0289928894789,6.855779962481382,166.07507642148312,-9.290718290723817,163.17380612507003,-7.95176055393587,2.901270296413088,-1.3389577367879468,29.0531551804105,9.73936696913272,137.0219212410726,-19.030085259856527,166.07507642148312,-9.290718290723817,27.95391646799578,16.1464982532052,0.0,0.0,51.79057721100738,-18.36305874749309,44.498261268142784,-5.3193681802897395,40.73308276192241,4.652341667926322,29.0531551804105,9.73936696913272,10,1.3142668713467537e-15,2.069270424677309e-15,1.1102230246251565e-13,0.0,0.011924999999999963,0.9245037111317735,0.011924999999999963
0.06482696996020774,190.00809584038575,4.834745456875584,176.03594082178876,-4.257368790407639,176.0359408217888,-4.257368790407668,-5.684341886080802e-14,2.842170943040401e-14,39.10396382902856,14.651829525436842,136.93197699276018,-18.909198315844456,176.03594082178876,-4.257368790407639,13.972155018596997,9.092114247283224,0.0,0.0,51.591079984066525,-18.29186784790761,44.352950910123894,-5.302080344774222,40.98794609856977,4.684749876837376,39.10396382902856,14.651829525436842,11,1.2240190602089151e-15,1.991468321131417e-15,1.1102230246251565e-13,3.469446951953614e-18,-2.220446049250313e-16,1.0330627465794946,0.0
0.06752809370854973,189.49484522874434,5.200629260517092,173.93261785513866,-4.818781355109749,154.51348813305714,3.4567945732135854,19.41912972208152,-8.275575928323335,37.480120907798266,13.96804717139731,136.45249694734042,-18.786828526507065,173.93261785513866,-4.818781355109749,15.562227373605669,10.01941061562684,0.0,0.0,51.27327487281924,-18.16790624899013,44.19846734371316,-5.285160136615266,40.980754730808,4.666237859098334,37.480120907798266,13.96804717139731,10,1.2059380147656188e-15,1.531213196626737e-15,1.3877787807814457e-13,0.0,0.08347499999999997,1.0211377465794946,0.08347499999999997
0.07022921745689172,189.87405118285045,5.815938534164776,172.65578968648916,-5.150712950354304,155.97338220470368,2.0562303821475467,16.682407481785475,-7.206943332501851,36.74197279441691,13.620554131168852,135.91381689207222,-18.771267081523142,172.65578968648916,-5.150712950354304,17.218261496361286,10.96665148451908,0.0,0.0,51.11956248257712,-18.115090562009932,44.04322345853638,-5.268674105868289,40.75103095095872,4.612497586355065,36.74197279441691,13.620554131168852,10,1.4899913486639614e-15,1.7054213902608565e-15,2.220446049250313e-13,0.0,0.07154999999999978,1.0092127465794944,0.07154999999999978
0.07293034120523371,191.35696478326963,6.630379043977445,172.42036374041632,-5.29974981708537,158.48597407980813,0.8017826989453596,13.93438966060819,-6.10153251603073,36.85603667851653,13.403956672271825,135.5643270618998,-18.703706489357202,172.42036374041632,-5.29974981708537,18.936601042853315,11.930128861062816,0.0,0.0,50.96608292514909,-18.062125998071046,43.9005914296636,-5.252704640111688,40.697652707087116,4.611124148825528,36.85603667851653,13.403956672271825,10,1.140308244921878e-15,1.5873983155188534e-15,1.1102230246251565e-13,0.0,0.05962499999999982,0.9972877465794945,0.05962499999999982
0.0756314649535757,188.57821539767414,6.388016867842188,167.8647063790575,-6.518165143184461,156.69033737573017,-1.5594443856967075,11.174369003327342,-4.958720757487754,34.58454236042263,12.424645628789271,133.28016401863488,-18.942810771973726,167.8647063790575,-6.518165143184461,20.71350901861664,12.90618201102665,0.0,0.0,50.8124043160139,-18.008948339229967,43.76969378818383,-5.237336800492422,38.69806591443713,4.303474367748663,34.58454236042263,12.424645628789271,10,1.3699398804371616e-15,2.235599184585308e-15,2.220446049250313e-13,0.0,0.047699999999999854,0.9853627465794945,0.047699999999999854
0.07833258870191769,190.210343055149,7.377143730133341,167.6651655674255,-6.514062738997012,159.26352566225194,-2.7362038413979377,8.401639905173568,-3.7778588975990743,34.51652832205476,12.319235164146662,133.14863724537076,-18.833297903143688,167.6651655674255,-6.514062738997012,22.545177487723482,13.891206469130353,0.0,0.0,50.658778393322066,-17.955644655655103,43.64130493457438,-5.222469180855057,38.84855391747433,4.344815933366476,34.51652832205476,12.319235164146662,10,1.1158556455876437e-15,1.7409191639585447e-15,2.220446049250313e-13,0.0,0.03577499999999989,0.9734377465794946,0.03577499999999989
0.08103371245025967,189.98230605488624,7.617656046644198,165.5545686646486,-7.264006693472524,159.93908604517878,-4.705742812670152,5.615482619469816,-2.5582638808023717,32.575139227257445,11.473370278660623,132.97942943739116,-18.737376972133156,165.5545686646486,-7.264006693472524,24.42773739023763,14.881662740116722,0.0,0.0,50.50838920134218,-17.903009000836136,43.50534381661855,-5.207368292921272,38.965696419430415,4.373000321624257,32.575139227257445,11.473370278660623,10,9.1214795561035e-16,9.987143598908686e-16,2.220446049250313e-13,0.0,0.023849999999999927,0.9615127465794946,0.023849999999999927
0.08373483619860167,192.03795323855513,8.339242913514306,165.6806847987409,-7.534841752658409,162.86551214791683,-6.235619245322766,2.8151726508240813,-1.2992225073356423,31.696679209924355,10.897617536055531,133.98400558881656,-18.43245928871395,165.6806847987409,-7.534841752658409,26.357268439814227,15.874084666172715,0.0,0.0,50.36145093002415,-17.851163729878365,43.360118942451514,-5.192059594471278,40.26243571634088,4.610764035635697,31.696679209924355,10.897617536055531,10,1.0855529552318864e-15,1.8462226640521988e-15,2.220446049250313e-13,0.0,0.011924999999999963,0.9495877465794945,0.011924999999999963
0.08643595994694366,188.61643258080602,6.501581236640648,175.29582073927025,-2.4725404826200474,175.2958207392703,-2.472540482620076,-5.684341886080802e-14,2.842170943040401e-14,41.37576145578092,15.867372786153776,133.92005928348937,-18.339913268773834,175.29582073927025,-2.4725404826200474,13.32061184153576,8.974121719260696,0.0,0.0,50.21783756245989,-17.800158735206544,43.208418941657065,-5.176626107321077,40.493802779372395,4.636871573753801,41.37576145578092,15.867372786153776,11,1.5331791382835854e-15,1.321585007304927e-15,1.1102230246251565e-13,3.469446951953614e-18,-2.220446049250313e-16,1.0559205585428277,0.0
0.08913708369528564,188.11124936881066,6.835391974303311,173.3366975563493,-3.014846085312925,154.44918963968723,5.033947199630333,18.88750791666206,-8.048793284943258,39.90440456600499,15.22861112783309,133.4322929903443,-18.243457213146016,173.3366975563493,-3.014846085312925,14.77455181246138,9.850238059616236,0.0,0.0,49.94950727246986,-17.693831369222096,43.05358094824485,-5.1610535303713565,40.4292047696296,4.611427686447431,39.90440456600499,15.22861112783309,10,8.933260644989126e-16,2.73491470415597e-15,2.220446049250313e-13,0.0,0.08347499999999997,1.0439955585428278,0.08347499999999997
0.09183820744362764,186.7566784782919,6.675742968824428,170.47511614186755,-4.065114220317639,154.23466391450947,2.950763567428851,16.240452227358077,-7.01587778774649,37.59737363766044,14.186960146716856,132.8777425042071,-18.25207436703451,170.47511614186755,-4.065114220317639,16.281562336424354,10.740857189142067,0.0,0.0,49.8452174098296,-17.658923906193305,42.906541235657194,-5.145329942536499,40.125983858720296,4.552179481695301,37.59737363766044,14.186960146716856,10,1.1064689069686884e-15,1.713447179713117e-15,2.220446049250313e-13,0.0,0.07154999999999978,1.0320705585428278,0.07154999999999978
0.09453933119196962,186.8906741422508,7.26590741850022,169.05276458754912,-4.3764733101323685,155.4755650454881,1.5685788521135322,13.57719954206101,-5.945052162245901,36.99969175460787,13.920430721419763,132.05307283294124,-18.296904031552117,169.05276458754912,-4.3764733101323685,17.837909554701657,11.642380728632588,0.0,0.0,49.738096673683074,-17.622864321836516,42.77301818380986,-5.1296279123854,39.5419579754483,4.455588202669798,36.99969175460787,13.920430721419763,10,2.000898575961198e-15,1.4435507472207184e-15,1.1102230246251565e-13,0.0,0.05962499999999982,1.0201455585428278,0.05962499999999982
0.09724045494031161,185.91892110174655,7.538094387081774,166.47909216302952,-5.013197381096916,155.58179686233305,-0.1774669594431657,10.89729530069647,-4.83573042165375,36.61076922299797,13.532428253777734,129.86832294003153,-18.545625634874646,166.47909216302952,-5.013197381096916,19.439828938717035,12.55129176817869,0.0,0.0,49.62774217450578,-17.58559211667034,42.64721652603576,-5.114214382536666,37.59336423948998,4.154180864332368,36.61076922299797,13.532428253777734,10,1.0587289906417385e-15,1.4241126569655589e-15,2.220446049250313e-13,0.0,0.047700000000000076,1.0082205585428279,0.047700000000000076
0.0999415786886536,185.70665758964967,7.754941492877494,164.62312271488312,-5.709220948037824,156.42292149998335,-2.0219548913779875,8.200201214899778,-3.687266056659837,34.89564593009865,12.739354184172786,129.72747678478447,-18.448575132210614,164.62312271488312,-5.709220948037824,21.083534874766542,13.464162440915318,0.0,0.0,49.51453315974239,-17.547212989376533,42.52277568836516,-5.099216754549859,37.690167936676914,4.197854611715787,34.89564593009865,12.739354184172786,10,1.4370461786380966e-15,1.526597324888623e-15,1.1102230246251565e-13,0.0,0.03577499999999989,0.9962955585428278,0.03577499999999989
0.1026427024369956,186.9141500050926,8.538429369661188,164.1489198156108,-5.8392317032731995,158.66358265752447,-3.3402625975538456,5.485337158086338,-2.498969105719354,34.58600851353777,12.522044180068491,129.56291130207302,-18.361275883341662,164.1489198156108,-5.8392317032731995,22.76523018948179,14.377661072934387,0.0,0.0,49.40168370992946,-17.50852021336405,42.39303498408434,-5.084031381379923,37.768192608059216,4.231275711402315,34.58600851353777,12.522044180068491,10,1.2964729563890886e-15,9.215546215843904e-16,8.326672684688674e-14,0.0,0.023849999999999927,0.9843705585428277,0.023849999999999927
0.10534382618533758,186.54681223845276,8.624798799542145,162.0656966481551,-6.663760093465157,159.31357433975225,-5.393636232013037,2.7521223084028463,-1.2701238614521202,32.520427965911786,11.599156256585948,129.5452686822433,-18.2629163500511,162.0656966481551,-6.663760093465157,24.48111559029767,15.288558893007302,0.0,0.0,49.28952505779996,-17.469661495872888,42.25681683904858,-5.068577006183595,37.998926785394744,4.275322152005373,32.520427965911786,11.599156256585948,10,1.1414584752010573e-15,1.4631232517397032e-15,1.1102230246251565e-13,0.0,0.011924999999999963,0.9724455585428278,0.011924999999999963
0.10804494993367957,183.77394958096,6.762174978773123,171.22324391846706,-1.945567545408693,171.22324391846706,-1.945567545408693,0.0,0.0,41.13402762062042,16.10897485636762,130.08921629784663,-18.054542401776324,171.22324391846706,-1.945567545408693,12.550705662492943,8.707742524181816,0.0,0.0,49.17786958483827,-17.430670718149624,42.11547700540642,-5.0527998064338036,38.795869707601945,4.428928122807111,41.13402762062042,16.10897485636762,11,1.315537908943595e-15,1.4488598787913452e-15,1.1102230246251565e-13,3.469446951953614e-18,0.0,1.0759085240767583,0.0
0.11074607368202156,184.89590132230097,7.630400159850279,171.0400763106089,-1.884171522921946,152.5249282170664,6.005967580923837,18.515148093542507,-7.890139103845783,41.31318714670541,16.067485111829175,129.72688916390348,-17.95165663475113,171.0400763106089,-1.884171522921946,13.855825011692069,9.514571682772225,0.0,0.0,48.952960253680516,-17.341686763130518,41.97067405287761,-5.03669051879157,38.803254857345344,4.42672064717096,41.31318714670541,16.067485111829175,10,1.3466419939489958e-15,1.4081845473662568e-15,1.1102230246251565e-13,0.0,0.08347499999999997,1.0639835240767583,0.08347499999999997
0.11344719743036355,183.6602081275625,7.444210680197845,168.45828539705846,-2.886267812097074,152.52874080883407,3.995322795633669,15.929544588224388,-6.881590607730743,39.16074039629161,15.057608360920355,129.29754500076683,-17.943876173017415,168.45828539705846,-2.886267812097074,15.201922730504037,10.330478492294919,0.0,0.0,48.8708147360831,-17.315099251312407,41.82713119833821,-5.020360256033223,38.59959906634554,4.391583334328217,39.16074039629161,15.057608360920355,10,1.287128955446375e-15,1.651163999692782e-15,2.220446049250313e-13,0.0,0.07154999999999978,1.0520585240767584,0.07154999999999978
0.11614832117870554,183.68651868682787,7.910794693636436,167.10111718275087,-3.241322852967855,153.77629311159478,2.5932417817989943,13.324824071156087,-5.834564634766849,38.39365497576796,14.71408829446753,128.70746220698294,-17.95541114743539,167.10111718275087,-3.241322852967855,16.585401504077,11.152117546604291,0.0,0.0,48.7835698676823,-17.286594855664337,41.689033193050435,-5.004082839693012,38.234859146250194,4.335266547921957,38.39365497576796,14.71408829446753,10,1.2396804667892984e-15,9.90171611785698e-16,2.220446049250313e-13,0.0,0.05962499999999982,1.0401335240767584,0.05962499999999982
0.11884944492704752,182.16048605861565,7.745438056020825,164.15780718539813,-4.230814993520923,153.45721973417707,0.517638620705327,10.700587451221054,-4.74845361422625,36.31846606240953,13.777034174229748,127.8393411229886,-18.007849167750656,164.15780718539813,-4.230814993520923,18.00267887321751,11.976253049541748,0.0,0.0,48.69093713450336,-17.256125196615812,41.55471552982965,-4.988173169346055,37.59368845865559,4.236449198211211,36.31846606240953,13.777034174229748,10,1.0726477362030667e-15,1.4901396176408957e-15,1.1102230246251565e-13,0.0,0.047700000000000076,1.0282085240767584,0.047700000000000076
0.12155056867538952,181.32762686209995,8.00543057037802,161.87743106552793,-4.794333807655022,153.82103249611944,-1.1717225981072517,8.056398569408486,-3.6226112095477703,35.92200527789543,13.42895507245165,125.95542578763249,-18.223288880106665,161.87743106552793,-4.794333807655022,19.450195796572007,12.799764378033043,0.0,0.0,48.593241196696795,-17.223782438748888,41.42061200670847,-4.972751211613673,35.94157258422723,3.973244770255892,35.92200527789543,13.42895507245165,10,1.2677667834642737e-15,1.892797757504666e-15,1.1102230246251565e-13,0.0,0.03577499999999989,1.0162835240767583,0.03577499999999989
0.1242516924237315,182.4646944187046,8.712770826294696,161.54026940288836,-4.906880326604124,156.14843724745973,-2.4505071944076917,5.391832155428631,-2.4563731321964326,35.664504790890874,13.21052375299621,125.8757646119975,-18.117404079600327,161.54026940288836,-4.906880326604124,20.92442501581625,13.61965115289882,0.0,0.0,48.492919856663775,-17.190182103617293,41.281290089724,-4.957304913516857,36.10155466560972,4.030082937533816,35.664504790890874,13.21052375299621,10,1.1351701820952517e-15,1.9376937863209896e-15,1.1102230246251565e-13,0.0,0.023849999999999927,1.0043585240767583,0.023849999999999927
0.1269528161720735,181.88176443237813,8.724136074713025,159.4598852283347,-5.708901736189034,156.75339412452053,-4.459836670478907,2.7064911038141872,-1.249065065710127,33.78898475038214,12.328872617000144,125.67090047795256,-18.03777435318917,159.4598852283347,-5.708901736189034,22.421879204043428,14.433037810902059,0.0,0.0,48.390534749770566,-17.15553149631125,41.13479492099438,-4.941645467294435,36.1455708071876,4.059402610416516,33.78898475038214,12.328872617000144,10,8.969999934327428e-16,1.3968227359850257e-15,2.220446049250313e-13,0.0,0.011924999999999963,0.9924335240767583,0.011924999999999963
0.1296539399204155,177.4164737339522,6.459268441249046,165.72182591630877,-1.8495088252230403,165.72182591630883,-1.8495088252230687,-5.684341886080802e-14,2.842170943040401e-14,40.12691936736452,16.09628161125976,125.59490654894427,-17.945790436482802,165.72182591630877,-1.8495088252230403,11.694647817643416,8.308777266472086,0.0,0.0,48.28621879272435,-17.119947951669445,40.982229300045404,-4.92570263909448,36.3264584561745,4.099860154281121,40.12691936736452,16.09628161125976,11,1.3124452112264917e-15,1.532300711862655e-15,1.1102230246251565e-13,3.469446951953614e-18,-2.220446049250313e-16,1.092463828452455,0.0
0.13235506366875746,177.75192210404043,6.89700848158169,164.9058978255333,-2.136464117292448,146.68309813547188,5.629349977623335,18.222799690061407,-7.765814094915783,39.411484486454825,15.657551173835675,125.49441333907848,-17.794015291128133,164.9058978255333,-2.136464117292448,12.846024278507135,9.033472598874138,0.0,0.0,48.077523120614465,-17.038478367462588,40.82615927082484,-4.909537428753238,36.59073094763917,4.154000505087698,39.411484486454825,15.657551173835675,10,1.1589435081112881e-15,1.4317769492732837e-15,1.1102230246251565e-13,0.0,0.08347499999999997,1.080538828452455,0.08347499999999997
0.13505618741709946,178.93569965534627,7.476810079500767,164.9080060589008,-2.285513756389065,149.224380868241,4.490012483062458,15.683625190659797,-6.775526239451523,39.49007570085754,15.432676485182736,125.4179303580433,-17.71819024157182,164.9080060589008,-2.285513756389065,14.027693596445454,9.762323835889832,0.0,0.0,47.996597273721754,-17.012979338467858,40.66848331126764,-4.893304304527273,36.7528497730539,4.1880934014233056,39.49007570085754,15.432676485182736,10,9.475016870459376e-16,1.3130796807024454e-15,2.220446049250313e-13,0.0,0.07154999999999978,1.0686138284524551,0.07154999999999978
0.13775731116544146,177.15492168940108,7.40704848182396,161.9185518913799,-3.0853080041678993,148.79492344472277,2.6612651144018713,13.123628446657136,-5.746573118569771,37.624033951230714,14.755647143398598,124.29451794014919,-17.84095514756649,161.9185518913799,-3.0853080041678993,15.236369798021183,10.49235648599186,0.0,0.0,47.90944624600284,-16.98510812557894,40.51005397461613,-4.877186212407253,35.87501771953024,4.021339190419692,37.624033951230714,14.755647143398598,10,1.3652394995639482e-15,1.012329554516079e-15,2.220446049250313e-13,0.0,0.05962499999999982,1.056688828452455,0.05962499999999982
0.14045843491378343,175.35772155522486,7.135216806335748,158.8889028121413,-4.0855079930153835,148.34642066363463,0.5928428136399617,10.542482148506679,-4.678350806655345,35.60738846617738,13.843106274419057,123.28151434596393,-17.928614267434426,158.8889028121413,-4.0855079930153835,16.46881874308355,11.220724799351132,0.0,0.0,47.81616550782996,-16.954924736192865,40.355040455993304,-4.861375980326921,35.11030838214066,3.887686449085354,35.60738846617738,13.843106274419057,10,1.823260561614312e-15,2.379167043588477e-15,2.220446049250313e-13,0.0,0.047700000000000076,1.0447638284524552,0.047700000000000076
0.14315955866212543,174.03695565192552,6.926625540441899,156.3150906332129,-5.0180894640144516,148.37523191336078,-1.44785576147099,7.939858719852111,-3.5702337025434616,33.77203197658286,12.934759749588926,122.54305865663002,-17.952849213603372,156.3150906332129,-5.0180894640144516,17.72186501871263,11.94471500445635,0.0,0.0,47.717700070957626,-16.922698062448706,40.209474560425775,-4.845946387539236,34.61588402524663,3.81579523638457,33.77203197658286,12.934759749588926,10,1.3185395211900176e-15,1.408160712394158e-15,1.1102230246251565e-13,0.0,0.03577499999999989,1.032838828452455,0.03577499999999989
0.14586068241046743,175.19366287778928,7.565209482552811,156.2012643326794,-5.096538556963452,150.88581994460122,-2.674957793378212,5.315444388078163,-2.42158076358524,34.087901582066564,12.815166468956246,122.11336275061284,-17.911705025919716,156.2012643326794,-5.096538556963452,18.99239854510988,12.661748039516263,0.0,0.0,47.61792532060606,-16.889425413711173,40.0674314737802,-4.830219972029324,34.42800595622656,3.8079403598207833,34.087901582066564,12.815166468956246,10,1.3483932768620279e-15,1.730339986737839e-15,2.220446049250313e-13,0.0,0.023849999999999927,1.020913828452455,0.023849999999999927
0.1485618061588094,175.84039798691708,8.0894646082213,155.5630171054736,-5.279917173959561,152.89408584299267,-4.0481852289166085,2.6689312624809247,-1.2317319450429522,33.74341872199421,12.564766053318921,121.8195983834794,-17.8446832272785,155.5630171054736,-5.279917173959561,20.27738088144349,13.369381782180861,0.0,0.0,47.51740003888147,-16.855360686186096,39.924868571881404,-4.814157220737135,34.37732977271652,3.8248346796447343,33.74341872199421,12.564766053318921,10,1.1146339218825369e-15,8.899151050947639e-16,1.1102230246251565e-13,0.0,0.011924999999999963,1.008988828452455,0.011924999999999963
0.1512629299071514,170.93841034961994,5.600237181532451,160.15165535914548,-2.2012842035298235,160.15165535914554,-2.2012842035298377,-5.684341886080802e-14,1.4210854715202004e-14,38.60376093476921,15.574698637709005,121.54789442437625,-17.77598284123882,160.15165535914548,-2.2012842035298235,10.786754990474464,7.801521385062275,0.0,0.0,47.416096943014466,-16.820621454796157,39.77896544994977,-4.797768414773305,34.352832031412014,3.8424070283306406,38.60376093476921,15.574698637709005,11,1.4021302655903874e-15,1.7402658686239676e-15,8.326672684688674e-14,3.469446951953614e-18,-2.220446049250313e-16,1.1051203127140652,0.0
0.1539640536554934,170.98397218447187,6.122285847268326,159.19723441232767,-2.314925416453832,141.24116700815046,5.337687444264731,17.95606740417722,-7.652612860718563,38.06797663119037,15.363684442705011,121.12925778113727,-17.67860985915884,159.19723441232767,-2.314925416453832,11.786737772144201,8.437211263722158,0.0,0.0,47.21914265339024,-16.74363696775628,39.62929523169185,-4.781094773638571,34.28081989605519,3.8461218822360124,38.06797663119037,15.363684442705011,10,1.4123743700296516e-15,1.416178327178875e-15,1.1102230246251565e-13,0.0,0.08347499999999997,1.0931953127140652,0.08347499999999997
0.15666517740383537,172.0191042879305,6.678585127552353,159.2109726157127,-2.394428917434965,143.7549163186875,4.283075968073774,15.456056297025214,-6.677504885508739,38.31941311549598,15.226559127244577,120.89155950021672,-17.620988044679528,159.2109726157127,-2.394428917434965,12.808131672217796,9.073014044987318,0.0,0.0,47.14022093733353,-16.718204305839258,39.47753427693621,-4.764273690039957,34.273804285946966,3.8614899511996903,38.31941311549598,15.226559127244577,10,1.0086538590543124e-15,8.601696167993658e-16,2.220446049250313e-13,0.0,0.07155,1.0812703127140653,0.07155
0.15936630115217737,171.5449807581326,6.645554113341088,157.69689676570826,-3.060850211898128,144.76165891411677,2.603396902290413,12.935237851591495,-5.664247114188541,37.060123015667905,14.504356632079585,120.63677375004033,-17.56520684397769,157.69689676570826,-3.060850211898128,13.848083992424323,9.706404325239216,0.0,0.0,47.05695170954227,-16.691089347685853,39.325718450377096,-4.747518842981439,34.25410359012096,3.8734013466896116,37.060123015667905,14.504356632079585,10,1.269032311177872e-15,7.806528734550738e-16,1.1102230246251565e-13,0.0,0.05962499999999982,1.069345312714065,0.05962499999999982
0.16206742490051934,169.8660605064426,6.535734102057319,154.96224057966148,-3.79925995230883,144.56919734600288,0.8128598101078239,10.393043233658602,-4.612119762416654,35.26388997466902,13.844681419053437,119.69835060499248,-17.64394137136226,154.96224057966148,-3.79925995230883,14.903819926781138,10.334994054366149,0.0,0.0,46.96910736259405,-16.662257764100886,39.175113547450636,-4.731058966538278,33.554129694947804,3.749375359276895,35.26388997466902,13.844681419053437,10,9.31270839714541e-16,1.5761993179395562e-15,2.220446049250313e-13,0.0,0.047700000000000076,1.0574203127140653,0.047700000000000076
0.16476854864886134,167.9971896469664,6.1547135433230675,152.02454218672588,-4.801819894026224,144.19561229549953,-1.2814312415798526,7.828929891226352,-3.5203886524463712,33.19219063235972,12.89892912411434,118.83235155436616,-17.70074901814055,152.02454218672588,-4.801819894026224,15.972647460240523,10.956533437349291,0.0,0.0,46.877058527404394,-16.631823904801777,39.025785037650536,-4.714974740452654,32.92950798931123,3.646049627113877,33.19219063235972,12.89892912411434,10,1.301222655571773e-15,1.4808484540476965e-15,1.1102230246251565e-13,0.0,0.03577499999999989,1.0454953127140652,0.03577499999999989
0.16746967239720334,168.4751986255637,6.581619595581895,151.42323668455097,-4.987291776351,146.1808538680644,-2.5989856787887646,5.242382816486582,-2.3883060975622357,33.268352686009656,12.727539435577391,118.1548839985413,-17.714831211928377,151.42323668455097,-4.987291776351,17.05196194101273,11.568911371932895,0.0,0.0,46.78333553211103,-16.60043743683658,38.87603125836906,-4.698802378801716,32.495517208061216,3.584408603709912,33.268352686009656,12.727539435577391,10,1.6085801473972035e-15,1.4623481373794117e-15,8.326672684688674e-14,0.0,0.023849999999999927,1.0335703127140652,0.023849999999999927
0.1701707961455453,168.79050164843676,6.962352816345383,150.65125132578834,-5.2078026180167,148.0183472901965,-3.99269623063239,2.6329040355918494,-1.21510638738431,32.94938699946576,12.47438417983838,117.70186432632258,-17.68218679785509,150.65125132578834,-5.2078026180167,18.139250322648426,12.170155434362083,0.0,0.0,46.68854805235573,-16.56832535220601,38.72728604054032,-4.682511966959286,32.28603023342654,3.5686505213102055,32.94938699946576,12.47438417983838,10,1.1098706684148671e-15,1.2326761954145859e-15,6.245004513516506e-14,0.0,0.011924999999999963,1.0216453127140652,0.011924999999999963
0.1728719198938873,164.70215395752246,4.8403109260208135,154.840818646252,-2.3758746058760636,154.840818646252,-2.3758746058760636,0.0,0.0,37.4444750200616,15.245785576354937,117.39634362619039,-17.621660182230997,154.840818646252,-2.3758746058760636,9.86133531127048,7.216185531896877,0.0,0.0,46.59292110521534,-16.535631362638178,38.57879699257697,-4.666147935311159,32.22462552839807,3.5801191157183467,37.4444750200616,15.245785576354937,11,1.5062524780623769e-15,2.476804838510658e-15,1.1102230246251565e-13,3.469446951953614e-18,0.0,1.1135215996332228,0.0
0.1755730436422293,164.67284694889292,5.259866773077767,153.95435574427378,-2.5020559888421303,136.28566285845125,5.028275837468755,17.668692885822537,-7.530331826310885,36.92419101302739,15.00300684159794,117.03016473124642,-17.505062830440075,153.95435574427378,-2.5020559888421303,10.718491204619133,7.761922761919897,0.0,0.0,46.38395521221641,-16.452959951242377,38.429692718359995,-4.6497433803159804,32.21651680067,3.5976405011182884,36.92419101302739,15.00300684159794,10,9.437308693555731e-16,1.688721248657508e-15,1.1102230246251565e-13,0.0,0.08347499999999997,1.1015965996332229,0.08347499999999997
0.17827416739057128,163.74915979110182,5.061395573697313,152.15900659723002,-3.2434290498787703,136.94224623117796,3.3308238979511344,15.216760366052057,-6.574252947829905,35.37145422571382,14.215080859345814,116.7875523715162,-17.45850990922459,152.15900659723002,-3.2434290498787703,11.590153193871787,8.304824623576083,0.0,0.0,46.31695760098468,-16.432298064734066,38.27976944422037,-4.633336614446922,32.190825326311135,3.6071247699564104,35.37145422571382,14.215080859345814,10,1.1502542017793583e-15,1.1244015913746063e-15,1.1102230246251565e-13,0.0,0.07155,1.089671599633223,0.07155
0.18097529113891328,164.56120273226972,5.491851541945257,152.0872361020988,-3.3509950581540977,139.34580890689324,2.2284647368082062,12.741427195205574,-5.579459794962304,35.50905848951119,14.052932459075429,116.57817761258764,-17.403927517229533,152.0872361020988,-3.3509950581540977,12.473966630170894,8.842846600099355,0.0,0.0,46.24481109874372,-16.409574445101413,38.12940622023791,-4.616993131322118,32.203960293606016,3.6226400591940013,35.50905848951119,14.052932459075429,10,1.1849228629470792e-15,2.535508351146868e-15,1.1102230246251565e-13,0.0,0.05962499999999982,1.077746599633223,0.05962499999999982
0.18367641488725528,164.51619785571083,5.714780755221113,151.1485284684303,-3.659299018982736,140.90622839507472,0.8859691191625956,10.24230007335558,-4.545268138145332,34.87604750909685,13.708300149274272,116.27248095933344,-17.367599168257016,151.1485284684303,-3.659299018982736,13.367669387280525,9.37407977420385,0.0,0.0,46.167700219810506,-16.38489166508812,37.979210616424766,-4.600813342670463,32.125570123098186,3.6181058395015597,34.87604750909685,13.708300149274272,10,1.1436571202030509e-15,1.4807811011278598e-15,1.1102230246251565e-13,0.0,0.047699999999999854,1.0658215996332228,0.047699999999999854
0.18637753863559725,162.2971183891762,5.1719030463489855,148.02802363419048,-4.724846629005583,140.30903398835008,-1.253874939751654,7.718989645840395,-3.470971689253929,32.45379537262524,12.683645648330454,115.57422826156525,-17.40849227733603,148.02802363419048,-4.724846629005583,14.269094754985732,9.896749675354569,0.0,0.0,46.08584535201084,-16.358368988437803,37.82988536079628,-4.584927805046721,31.658497548758127,3.534804516148496,32.45379537262524,12.683645648330454,10,1.2272330732513636e-15,1.5962655231301113e-15,1.1102230246251565e-13,0.0,0.03577499999999989,1.053896599633223,0.03577499999999989
0.18907866238393925,160.87448127598213,4.908567253206641,145.69830725949532,-5.500647493962454,140.52720136038545,-3.144807586128522,5.171105899109875,-2.355839907833932,30.802675799330032,11.939301332978115,114.89563146016533,-17.439948826940586,145.69830725949532,-5.500647493962454,15.176174016486819,10.409214747169095,0.0,0.0,45.99948101565338,-16.33013646047605,37.682308429415585,-4.569489056171783,31.213842015096372,3.4596766897072566,30.802675799330032,11.939301332978115,10,1.0956177187560049e-15,1.2185694930486978e-15,8.326672684688674e-14,0.0,0.023849999999999927,1.0419715996332228,0.023849999999999927
0.19177978613228122,159.76379804005103,4.68429748329328,143.67685932727372,-6.225666969236123,141.07861063735243,-5.026553545407047,2.5982486899212915,-1.1991134238290755,29.355261477106254,11.22070342743684,114.32159785016748,-17.446370396672968,143.67685932727372,-6.225666969236123,16.086938712777307,10.909964452529403,0.0,0.0,45.908978205786575,-16.300360309355682,37.53737485241798,-4.554624501823614,30.875244791962906,3.4086144145063386,29.355261477106254,11.22070342743684,10,1.0109384106436124e-15,1.287888259423321e-15,8.326672684688674e-14,0.0,0.011924999999999963,1.030046599633223,0.011924999999999963
0.19448090988062322,158.315566472809,3.6867904610282576,149.36482794672872,-2.8990065625404213,149.36482794672872,-2.8990065625404213,0.0,0.0,35.480430773641075,14.524608225339588,113.88439717308769,-17.423614787880034,149.36482794672872,-2.8990065625404213,8.95073852608027,6.585797023568679,0.0,0.0,45.81781760137365,-16.269953302009544,37.393357015672024,-4.53970141525723,30.67322255604201,3.3860399293867474,35.480430773641075,14.524608225339588,11,1.178505514096728e-15,1.497326369375918e-15,1.1102230246251565e-13,3.469446951953614e-18,0.0,1.1174311284648535,0.0
0.19718203362896522,158.1889862655815,4.000700017437697,148.51056497949455,-3.0451286006382077,131.07813169411347,4.384837268814543,17.43243328538108,-7.429965869452751,35.05518192617936,14.285318759781017,113.4553830533152,-17.330447360419242,148.51056497949455,-3.0451286006382077,9.67842128608695,7.045828618075904,0.0,0.0,45.619854966305596,-16.192064743899984,37.25281969205446,-4.524501918147539,30.582708394955155,3.3861193016282716,35.05518192617936,14.285318759781017,10,9.438725362964215e-16,1.4009337412202012e-15,5.551115123125783e-14,0.0,0.08347499999999997,1.1055061284648535,0.08347499999999997
0.1998831573773072,157.40272010336872,3.8150708451246524,146.98706915024763,-3.686145452630427,131.96901254712157,2.8024558207741066,15.01805660312607,-6.488601273404534,33.77016185360762,13.601479288224196,113.21690729664002,-17.287624740854632,146.98706915024763,-3.686145452630427,10.415650953121094,7.50121629775508,0.0,0.0,45.558242158552886,-16.173370892549308,37.11476291677131,-4.509094226593229,30.543902221315815,3.394840378287906,33.77016185360762,13.601479288224196,10,1.1716681604247725e-15,1.0570658942833222e-15,4.163336342344337e-14,0.0,0.07155,1.0935811284648536,0.07155
0.2025842811256492,156.35308549332566,3.507466503320866,145.1925025572664,-4.442917266337311,132.61301251013774,1.0657388898017999,12.579490047128672,-5.508656156139111,32.21659104632497,12.80333831486765,112.97591151094143,-17.246255581204956,145.1925025572664,-4.442917266337311,11.160582936059264,7.950383769658177,0.0,0.0,45.494023839333245,-16.15339939964597,36.977857793918915,-4.493529592890734,30.504029877689284,3.400673411331738,32.21659104632497,12.80333831486765,10,1.0328103716193775e-15,2.1370518238314804e-15,1.6653345369377348e-13,0.0,0.05962499999999982,1.0816561284648536,0.05962499999999982
0.2052854048739912,156.93321653213943,3.8381418792122073,145.02174704325918,-4.553737992389308,134.9057289864039,-0.06445739259901018,10.116018056855296,-4.489280599790298,32.26431408436621,12.646313535538994,112.75743295889296,-17.200051527928288,145.02174704325918,-4.553737992389308,11.911469488880247,8.391879871601516,0.0,0.0,45.42697288923963,-16.13211981671186,36.84180392987971,-4.4778808188890284,30.488656139773624,3.4099491076725936,32.26431408436621,12.646313535538994,10,9.560024296900998e-16,1.2585679045754012e-15,1.1102230246251565e-13,0.0,0.047699999999999854,1.0697311284648534,0.047699999999999854
0.20798652862233316,156.5183797324233,3.895371753376832,143.85171888537963,-4.929004104038718,136.224761201544,-1.4993945891703504,7.626957683835627,-3.4296095148683676,31.41767966536086,12.246380171066827,112.43403922001876,-17.175384275105536,143.85171888537963,-4.929004104038718,12.666660847043696,8.82437585741555,0.0,0.0,45.356877469975075,-16.109508226840674,36.70706378549767,-4.462263510130988,30.370097964546037,3.3963874618661194,31.41767966536086,12.246380171066827,10,1.1703085207255171e-15,2.391325574647396e-15,1.1102230246251565e-13,0.0,0.03577499999999989,1.0578061284648537,0.03577499999999989
0.21068765237067516,154.6089451624838,3.384324046421618,141.1843390676739,-5.862338364291361,136.07267439438687,-3.5335724037147784,5.111664673287038,-2.3287659605765825,29.301764814820366,11.333700743499572,111.88257425285352,-17.196039107790924,141.1843390676739,-5.862338364291361,13.424606094809874,9.246662410712979,0.0,0.0,45.28356192926602,-16.085554340610873,36.57435615656354,-4.446831407087046,30.024656167023952,3.3363466399069956,29.301764814820366,11.333700743499572,10,9.643408823326393e-16,1.4633105731722704e-15,5.551115123125783e-14,0.0,0.023849999999999927,1.0458811284648535,0.023849999999999927
0.21338877611901716,153.43128953783122,3.14988863518173,139.24743576652693,-6.507757771751756,136.67790145994857,-5.321895532640276,2.569534306578362,-1.1858622391114793,27.913099662023242,10.704674414351514,111.33433610450368,-17.212432186103257,139.24743576652693,-6.507757771751756,14.18385377130428,9.657646406933486,0.0,0.0,45.206891002988854,-16.060263263152713,36.44435606398268,-4.4317576902246,29.683089037532135,3.2795887672740545,27.913099662023242,10.704674414351514,10,1.0087972062373635e-15,8.794895156450474e-16,5.551115123125783e-14,0.0,0.011924999999999963,1.0339561284648535,0.011924999999999963
0.21608989986735913,150.17567423468844,1.5646372047337689,142.09193760604427,-4.378400332025663,142.09193760604427,-4.378400332025663,0.0,0.0,31.245692319513243,12.835210236340036,110.84624528653104,-17.213610568365716,142.09193760604427,-4.378400332025663,8.083736628644175,5.943037536759432,0.0,0.0,45.126760799790716,-16.033652939218648,36.31766050744007,-4.41721786195113,29.40182397930025,3.237260232804065,31.245692319513243,12.835210236340036,11,1.1973054403083694e-15,1.4643744681381241e-15,5.551115123125783e-14,3.469446951953614e-18,0.0,1.1167388159488325,0.0
0.21879102361570113,151.08056978471353,2.2691897944917425,142.38207878873422,-4.056401289012882,119.89950096210163,5.226955917737513,22.482577826632593,-9.283357206750395,32.1642275017601,13.041456185810366,110.21785128697414,-17.097857474823257,142.38207878873422,-4.056401289012882,8.698490995979327,6.325591083504625,0.0,0.0,44.81598454055842,-15.907980727188068,36.19484737664848,-4.403382143117799,29.207019369767217,3.2135053954826223,32.1642275017601,13.041456185810366,10,1.3808071738952878e-15,1.4981151860090358e-15,1.6653345369377348e-13,0.0,0.11084976043221273,1.1048138159488325,0.11084976043221273
0.22149214736404313,150.8385561892825,2.318157990671713,141.5189657582266,-4.384570739236864,121.34342429721703,4.063120103105753,20.175541461009587,-8.447690842342617,31.574344026043367,12.696642435732176,109.94462173218325,-17.081213174969044,141.5189657582266,-4.384570739236864,9.31959043105589,6.702728729908577,0.0,0.0,44.77535143482959,-15.897809487046114,36.07498049303204,-4.389953699488862,29.09428980432163,3.206550011565925,31.574344026043367,12.696642435732176,10,1.455947402601005e-15,1.2664446964979057e-15,1.1102230246251565e-13,0.0,0.09892476043221277,1.0928888159488326,0.09892476043221277
0.2241932711123851,150.00985266208707,2.0606522764213064,140.06418211713344,-5.012642026287388,122.22125195190746,2.562043356796039,17.84293016522598,-7.574685383083427,30.34485929221205,12.040876025543977,109.71932282492136,-17.053518051831347,140.06418211713344,-5.012642026287388,9.945670544953629,7.073294302708694,0.0,0.0,44.73045048424241,-15.885753648369853,35.95823589227584,-4.376590116243168,29.030636448403108,3.20882571278168,30.34485929221205,12.040876025543977,10,1.1390995025279231e-15,8.977576923927043e-16,1.1102230246251565e-13,0.0,0.0869997604322128,1.0809638159488326,0.0869997604322128
0.2268943948607271,149.19010046580016,1.8330747489830284,138.61464039983593,-5.6031654788267105,123.13049601452997,1.060386373126562,15.484144385305967,-6.663551851953272,29.11384134600351,11.42088056231436,109.50079905383241,-17.02404604114107,138.61464039983593,-5.6031654788267105,10.57546006596423,7.436240227809739,0.0,0.0,44.681451983460455,-15.871874985954376,35.8437974763548,-4.363317304380752,28.97554959401716,3.2111462491940532,29.11384134600351,11.42088056231436,10,1.0731616239485752e-15,1.2859714494852765e-15,5.551115123125783e-14,0.0,0.07507476043221284,1.0690388159488324,0.07507476043221284
0.22959551860906907,149.0808228352291,1.8806252293711738,137.87304220407847,-5.909998615105842,124.77442863552712,-0.19651173369959452,13.098613568551357,-5.713486881406247,28.611419312449726,11.088415347124688,109.26162289162876,-16.998413962230536,137.87304220407847,-5.909998615105842,11.207780631150639,7.7906238444770155,0.0,0.0,44.62846639442923,-15.856226926109178,35.730922990370566,-4.350163516077911,28.902233506828956,3.2079764799565638,28.611419312449726,11.088415347124688,10,1.266354195970261e-15,1.3525586609568915e-15,1.1102230246251565e-13,0.0,0.06314976043221288,1.0571138159488327,0.06314976043221288
0.23229664235741107,149.1832550528483,2.016223069909831,137.3417086762088,-6.119380490483749,126.65590726263065,-1.3957049398148769,10.685801413578162,-4.723675550668872,28.285923926799224,10.845170148432544,109.05578474940963,-16.96455063891632,137.3417086762088,-6.119380490483749,11.841546376639485,8.13560356039358,0.0,0.0,44.57156788527388,-15.83886022134126,35.619451739177656,-4.337176328196723,28.86476512495808,3.2114859106216684,28.285923926799224,10.845170148432544,10,1.0788511405470653e-15,1.5140277547666041e-15,5.551115123125783e-14,0.0,0.05122476043221269,1.0451888159488325,0.05122476043221269
0.23499776610575307,148.0960590260941,1.7484547622856699,135.62029568923262,-6.721980104044292,127.37508574681193,-3.028686187990111,8.245209942420686,-3.6932939160541807,26.919066670889464,10.238484033260605,108.70122901834316,-16.96046413730489,135.62029568923262,-6.721980104044292,12.475763336861501,8.470434866329962,0.0,0.0,44.5108179854909,-15.819829021885683,35.50963894331727,-4.324431584195711,28.68077208953499,3.1837964687765012,26.919066670889464,10.238484033260605,10,1.1103488539164171e-15,1.062794199632061e-15,1.1102230246251565e-13,0.0,0.03929976043221273,1.0332638159488325,0.03929976043221273
0.23769888985409504,144.78491286477964,0.2738708145459192,137.50055188680852,-5.043580404357471,131.72417040399188,-2.422069643122157,5.776381482816646,-2.6215107612353137,29.31655855958274,11.943581032165314,108.18399332722578,-16.987161436522783,137.50055188680852,-5.043580404357471,7.284360977971122,5.31745121890339,0.0,0.0,44.44628012978884,-15.799194561705251,35.401913258598704,-4.31203111875389,28.33579993883823,3.124064243936365,29.31655855958274,11.943581032165314,11,1.1671700580953135e-15,1.8303897496704492e-15,5.551115123125783e-14,3.469446951953614e-18,0.027374760432212764,1.1114641559991507,0.027374760432212764
0.24040001360243704,143.6986550537248,0.03493209405458675,135.89428823023448,-5.598360012406829,132.6153889576176,-4.090871189004012,3.278899272616883,-1.5074888234028165,28.19601840766999,11.40564273279075,107.6982698225645,-17.004002745197575,135.89428823023448,-5.598360012406829,7.804366823490311,5.633292106461416,0.0,0.0,44.378022092540895,-15.777025437832119,35.29673741880997,-4.300094283654374,28.023510311213634,3.0731169762889117,28.19601840766999,11.40564273279075,11,1.0304289266467931e-15,1.5736236424685148e-15,5.551115123125783e-14,0.0,0.0154497604322128,1.0995391559991508,0.0154497604322128
0.24310113735077904,144.2479446239526,0.3444190024630762,135.91895722205058,-5.599358300512769,135.1665693535995,-5.248972289557763,0.7523878684510805,-0.3503860109550061,28.63674920780809,11.404882216132755,107.28220801424249,-17.004240516645524,135.91895722205058,-5.599358300512769,8.328987401902026,5.943777302975845,0.0,0.0,44.30610855988522,-15.753394998915494,35.194578957811245,-4.288749554267774,27.781520496546023,3.03790403653775,28.63674920780809,11.404882216132755,11,8.937058832058497e-16,1.190080545723917e-15,5.551115123125783e-14,0.0,0.0035247604322126147,1.0876141559991508,0.0035247604322126147
0.245802261099121,143.7053227038885,0.44633743814958216,134.84804152410697,-5.8017629473257415,112.16635623912097,3.5349409180831373,22.681685284986003,-9.336703865408879,28.102115675459498,11.090304088922972,106.74592584864746,-16.892067036248697,134.84804152410697,-5.8017629473257415,8.85728117978152,6.248100385475324,0.0,0.0,44.01631254641628,-15.636325744720565,35.09590619433421,-4.278129470539968,27.633707107896978,3.022388179011825,28.102115675459498,11.090304088922972,10,9.327453556590287e-16,1.0951309587307498e-15,5.551115123125783e-14,0.0,0.11360371113177359,1.0756891559991508,0.11360371113177359
0.248503384847463,143.04313024500482,0.2425206868752543,133.65473949510113,-6.303023246177943,113.23601955650422,2.2201355949793466,20.418719938596908,-8.52315884115729,27.115913184460076,10.570403708924998,106.53882631064108,-16.873426955102957,133.65473949510113,-6.303023246177943,9.388390749903696,6.545543933053198,0.0,0.0,43.97909305286409,-15.626906087184409,34.999976913011515,-4.267894673328662,27.559756344765475,3.021373805410116,27.115913184460076,10.570403708924998,10,1.3309867830726189e-15,1.6486723744305284e-15,5.551115123125783e-14,0.0,0.10167871113177362,1.0637641559991506,0.10167871113177362
0.251204508595805,142.2553189919164,-0.02222418812975402,132.33377724058226,-6.8576996319169155,114.20416573307091,0.8150016206793183,18.129611507511356,-7.672701252596234,25.970694583731493,9.990636212757073,106.36308265685079,-16.848335844673997,132.33377724058226,-6.8576996319169155,9.921541751334138,6.835475443787161,0.0,0.0,43.93980209931369,-15.616293732793432,34.90525083333921,-4.257497857572176,27.518029724197877,3.025455745691616,25.970694583731493,9.990636212757073,10,1.0433086214913254e-15,1.9551159683403676e-15,5.551115123125783e-14,0.0,0.08975371113177344,1.0518391559991507,0.08975371113177344
0.253905632344147,141.38860832850403,-0.3161405228771592,130.9325666671631,-7.4334837142504,115.11892199883383,-0.6490139698082871,15.81364466832926,-6.784469744442113,24.746622706672127,9.39023736251168,106.18594396049096,-16.823721076762084,130.9325666671631,-7.4334837142504,10.456041661340942,7.117343191373241,0.0,0.0,43.89819781133947,-15.604437555817455,34.81127846807245,-4.2469840097291485,27.47646768107903,3.0277004887845234,24.746622706672127,9.39023736251168,10,1.2939758139789396e-15,1.6891486850901341e-15,5.551115123125783e-14,0.0,0.0778287111317737,1.0399141559991507,0.0778287111317737
0.25660675609248895,141.9581052274298,0.015942305420453273,130.96682675784703,-7.374729731450955,117.4966619213675,-1.517128391066585,13.470164836479526,-5.85760134038437,24.97992824216506,9.428657352284208,105.98689851568196,-16.803387083735146,130.96682675784703,-7.374729731450955,10.991278469582754,7.3906720368714085,0.0,0.0,43.85399722765692,-15.59127907781224,34.71788309712008,-4.23640813292851,27.415018190904966,3.024300127005599,24.97992824216506,9.428657352284208,10,1.0294472999875615e-15,1.1852536474884858e-15,1.1102230246251565e-13,0.0,0.06590371113177373,1.0279891559991507,0.06590371113177373
0.259307879840831,140.17353227644745,-0.9412466663769239,133.60226356286526,-5.674608271758352,122.5036786969688,-0.7833725090089843,11.098584865896456,-4.891235762749368,27.758998946539673,11.095888282729705,105.84326461632557,-16.770496554488048,133.60226356286526,-5.674608271758352,6.571268713582172,4.733361605381428,0.0,0.0,43.806910101857774,-15.576761066499694,34.62521270655651,-4.225842583231769,27.411141807911278,3.0321070952434113,27.758998946539673,11.095888282729705,11,1.389325579026179e-15,1.2617472376517878e-15,5.551115123125783e-14,3.469446951953614e-18,0.05397871113177355,1.1017556708005307,0.05397871113177355
0.26200900358917295,139.0353685341377,-1.2355062302805289,132.02037325822204,-6.229880017401243,123.32198238376778,-2.3453603850874387,8.698390874454262,-3.884519632313804,26.531002181883466,10.549789216792755,105.48937107633859,-16.779669234193996,132.02037325822204,-6.229880017401243,7.014995275915643,4.994373787120714,0.0,0.0,43.75666209551742,-15.560834073467216,34.53363474156076,-4.2153822370074785,27.1990742392604,2.9965470762807005,26.531002181883466,10.549789216792755,11,1.3866616366216314e-15,1.9240533361032227e-15,5.551115123125783e-14,0.0,0.042053711131773586,1.0898306708005308,0.042053711131773586
0.2647101273375149,137.66695435599763,-1.6308193600930938,130.20419813906148,-6.881492758598924,123.9350520952462,-4.044882770418667,6.269146043815269,-2.836609988180257,25.183901748779494,9.927724982894727,105.02029639028198,-16.80921774149366,130.20419813906148,-6.881492758598924,7.46275621693616,5.25067339850583,0.0,0.0,43.70301476619149,-15.543462268691066,34.44361661860269,-4.205143352621871,26.87366500548781,2.9393878798192787,25.183901748779494,9.927724982894727,11,1.156462594106807e-15,1.4943105196643858e-15,5.551115123125783e-14,0.0,0.030128711131773622,1.0779056708005308,0.030128711131773622
0.26741125108585695,137.55637211531246,-1.5063274901035397,129.6424093387522,-7.008052496868423,125.83191670308199,-5.261375323111302,3.810492635670215,-1.7466771737571207,25.03894600188199,9.816887706381822,104.60346333687019,-16.824940203250236,129.6424093387522,-7.008052496868423,7.9139627765602665,5.501725006764883,0.0,0.0,43.645779831746,-15.524627865175258,34.35566236960797,-4.195258472036036,26.60202113551624,2.8949461339610494,25.03894600188199,9.816887706381822,11,1.1930033422752713e-15,1.7499123131846171e-15,5.551115123125783e-14,0.0,0.018203711131773437,1.0659806708005306,0.018203711131773437
0.2701123748341989,137.5811840758516,-1.4611284242516653,129.21308525946853,-7.208190667674636,127.89093249790272,-6.594283381969653,1.3221527615658033,-0.6139072857049825,24.931430416120406,9.610620835610984,104.28165484334814,-16.818811503285623,129.21308525946853,-7.208190667674636,8.36809881638307,5.74706224342297,0.0,0.0,43.58482726771149,-15.504334038733306,34.27029238067538,-4.185870008163381,26.426535194961282,2.871392543611062,24.931430416120406,9.610620835610984,11,9.396844260143518e-16,1.6518889327324967e-15,1.1102230246251565e-13,0.0,0.006278711131773473,1.0540556708005306,0.006278711131773473
0.2728134985825409,136.61607604120616,-1.5860136678184151,127.79135672642198,-7.572297458204339,105.22782490163125,1.7028942735846826,22.56353182479073,-9.275191731789022,23.982398516049162,9.118924475282832,103.80895821037284,-16.691221933487174,127.79135672642198,-7.572297458204339,8.824719314784184,5.986283790385924,0.0,0.0,43.280808079177866,-15.379912157884133,34.188304804830686,-4.177124694814697,26.339845326364262,2.8658149192116635,23.982398516049162,9.118924475282832,10,1.0822756442384314e-15,1.1572729719606014e-15,4.163336342344337e-14,0.0,0.11483774657949453,1.042130670800531,0.11483774657949453
0.2755146223308829,135.88966939699094,-1.8584551761797758,126.60622059696635,-8.077504556099,106.25950301647748,0.4038316095089769,20.34671758048887,-8.481336165607978,22.934556985164228,8.597927282396657,103.67166361180213,-16.675431838495673,126.60622059696635,-8.077504556099,9.283448800024575,6.219049379919225,0.0,0.0,43.25980073659209,-15.376015284095402,34.10961886153469,-4.168666632150785,26.302244013675356,2.8692500777505128,22.934556985164228,8.597927282396657,10,9.001295419022067e-16,1.272136556933244e-15,5.551115123125783e-14,0.0,0.10291274657949456,1.0302056708005307,0.10291274657949456
0.2782157460792249,135.12946395961745,-2.1390247661474646,125.38548422915122,-8.584100585529434,107.28432070897895,-0.9340350964653581,18.101163520172264,-7.650065489064076,21.83871529927888,8.072095552408792,103.54676892987233,-16.656196137938224,125.38548422915122,-8.584100585529434,9.74397973046625,6.4450758193819695,0.0,0.0,43.23500852700307,-15.370312572735415,34.03227699119631,-4.1600870438196935,26.279483411672945,2.874203478616879,21.83871529927888,8.072095552408792,10,1.9794344764196277e-15,1.5059404850881407e-15,1.1102230246251565e-13,0.0,0.0909877465794946,1.0182806708005308,0.0909877465794946
0.28091686982756686,134.57644129503367,-2.496971122116989,128.6187899110267,-6.70565982369645,112.79219050643349,0.07500335515161538,15.826599404593225,-6.780663178848066,25.208836736526337,9.93289492527124,103.40995317450036,-16.63855474896768,128.6187899110267,-6.70565982369645,5.957651384006952,4.208688701579462,0.0,0.0,43.20655164417708,-15.362876626799038,33.95597761538057,-4.1514362105380105,26.247423914942704,2.8757580883693663,25.208836736526337,9.93289492527124,11,1.3198833705613483e-15,1.5556668680168884e-15,1.1102230246251565e-13,3.469446951953614e-18,0.07906274657949464,1.087886728768339,0.07906274657949464
0.2836179935759089,133.99755726229512,-2.659407341884833,127.65472098420379,-7.086086921559435,114.13191887889217,-1.213672383048518,13.522802105311627,-5.872414538510917,24.407067307724233,9.538900324206017,103.24765367647956,-16.62498724576545,127.65472098420379,-7.086086921559435,6.3428362780913154,4.426679579674602,0.0,0.0,43.17450223705107,-15.353774424779076,33.880595527119326,-4.142770008390363,26.192555912309153,2.8715571874039956,24.407067307724233,9.538900324206017,11,1.0224086712714606e-15,1.8240726149555903e-15,5.551115123125783e-14,0.0,0.06713774657949445,1.0759617287683387,0.06713774657949445
0.28631911732425086,133.456177008225,-2.8665666193521027,126.72385635279383,-7.507507620728276,115.53426950664083,-2.582903530282664,11.189586846153006,-4.924604090445612,23.567078742382275,9.087866554949033,103.15677761041157,-16.595374175677314,126.72385635279383,-7.507507620728276,6.732320655431194,4.640941001376174,0.0,0.0,43.13888473366628,-15.343064212554118,33.80624962672559,-4.134157651243537,26.211643250019705,2.8818476881203345,23.567078742382275,9.087866554949033,11,1.0275963738776123e-15,1.7420926693418e-15,1.1102230246251565e-13,0.0,0.05521274657949449,1.0640367287683388,0.05521274657949449
0.28902024107259283,132.11688187236257,-3.2720675709056906,124.99108347889386,-8.123200590943107,116.16428027205889,-4.186685641008381,8.826803206834967,-3.9365149499347254,22.265568034542454,8.509339449035771,102.7255154443514,-16.632540039978874,124.99108347889386,-8.123200590943107,7.125798393468721,4.851133020037416,0.0,0.0,43.0996858373965,-15.330795729093182,33.733243824319224,-4.125686503736848,25.89258578263569,2.823942192851149,22.265568034542454,8.509339449035771,11,1.4912937154643118e-15,1.83603498274439e-15,5.551115123125783e-14,0.0,0.043287746579494524,1.052111728768339,0.043287746579494524
0.29172136482093486,131.88738144064465,-3.2250846526864656,124.36435717075305,-8.282051151224124,117.93002185493945,-5.37462109495636,6.434335315813598,-2.9074300562677635,22.04200693366112,8.37824174754332,102.32235023709194,-16.66029289876745,124.36435717075305,-8.282051151224124,7.52302426989158,5.056966498537658,0.0,0.0,43.056871212248154,-15.317013179911202,33.661964880877655,-4.117461938290283,25.603514143966137,2.7741822194340315,22.04200693366112,8.37824174754332,11,1.1571197424324506e-15,8.952097959107977e-16,5.551115123125783e-14,0.0,0.03136274657949456,1.0401867287683388,0.03136274657949456
0.29442248856927683,131.2054271626921,-3.410215166069336,123.28161476882288,-8.668414641549134,119.2695097385862,-6.83177979766559,4.0121050302366825,-1.8366348438835445,21.271630173312595,7.9984408478955125,102.00998459551028,-16.66685548944464,123.28161476882288,-8.668414641549134,7.923812393869233,5.258199475479798,0.0,0.0,43.010405447259934,-15.301760142828556,33.59280533458032,-4.109603264204415,25.406773813670018,2.7445079175883347,21.271630173312595,7.9984408478955125,11,1.0900722933198298e-15,1.4842285212454334e-15,5.551115123125783e-14,0.0,0.019437746579494597,1.0282617287683389,0.019437746579494597
0.2971236123176188,131.1364675003545,-3.451521485657138,122.8084328731217,-8.906155076605053,121.24835684879478,-8.18273458112526,1.5600760243269178,-0.7234204954797931,20.98331307699313,7.739577551049891,101.82511979612858,-16.64573262765495,122.8084328731217,-8.906155076605053,8.328034627232816,5.454633590947915,0.0,0.0,42.96027152052278,-15.28508527831616,33.52625965526845,-4.102238185770407,25.338588620337354,2.741590836431614,20.98331307699313,7.739577551049891,11,1.3647872838677031e-15,1.2004946262034796e-15,1.1102230246251565e-13,0.0,0.0075127465794946335,1.016336728768339,0.0075127465794946335
0.29982473606596083,130.23248088604208,-3.6016043502210184,121.49686188346914,-9.247714928282612,99.38659358135797,-0.14774361886894383,22.110268302111166,-9.099971309413668,20.02754170923305,7.28204558784058,101.46932017423609,-16.529760516123194,121.49686188346914,-9.247714928282612,8.735619002572953,5.646110578061593,0.0,0.0,42.700715697783636,-15.17862651341225,33.46356837335348,-4.095456268792711,25.30503610309896,2.744322266081774,20.02754170923305,7.28204558784058,10,1.0279881560988313e-15,1.8902361831923643e-15,1.1102230246251565e-13,0.0,0.11384555854282774,1.0044117287683387,0.11384555854282774
0.3025258598143028,128.62051510511245,-4.391018790936218,123.16887608378833,-8.145710935854467,103.24740460133312,0.16827653458497593,19.921471482455217,-8.313987470439443,21.787612844962783,8.370327168057267,101.38126323882553,-16.516038103911725,123.16887608378833,-8.145710935854467,5.451639021324105,3.7546921449182493,0.0,0.0,42.68742510311708,-15.17697404109565,33.40254891111138,-4.088735322553836,25.291289224597072,2.7496712597377595,21.787612844962783,8.370327168057267,11,1.2838755333898884e-15,1.1132983726640711e-15,5.551115123125783e-14,3.469446951953614e-18,0.10192055854282778,1.070247847128342,0.10192055854282778
0.30522698356264477,128.77305278522698,-4.237843370309791,122.97840892814517,-8.178383455741404,105.2754056594013,-0.6878449658839685,17.70300326874387,-7.490538489857435,21.69324169561591,8.32434924614947,101.28516723252928,-16.502732701890885,122.97840892814517,-8.178383455741404,5.794643857081822,3.9405400854316133,0.0,0.0,42.6701250735926,-15.17347409247132,33.3423288766251,-4.081935156063436,25.272713282311564,2.752676546643878,21.69324169561591,8.32434924614947,11,1.3183285276167604e-15,1.6300930157500964e-15,5.551115123125783e-14,0.0,0.08999555854282781,1.0583228471283421,0.08999555854282781
0.3079281073109868,128.67501380506957,-4.280519812047841,122.53220535313793,-8.404301259575426,107.07744595682297,-1.7753468070435474,15.454759396314955,-6.628954452531879,21.366068364950106,8.088385307888226,101.16613698818782,-16.49268656746365,122.53220535313793,-8.404301259575426,6.142808451931651,4.123781447527585,0.0,0.0,42.64896474077017,-15.168211552056826,33.28286883563125,-4.075112115300755,25.2343034117864,2.750637099893927,21.366068364950106,8.088385307888226,11,1.3533228410847225e-15,1.1696712960499185e-15,5.551115123125783e-14,0.0,0.07807055854282763,1.046397847128342,0.07807055854282763
0.31062923105932877,127.95447795293431,-4.539384346453221,121.45842964670784,-8.843591567549836,108.28173945085636,-3.1150165363087226,13.176690195851478,-5.728575031241114,20.440578964960554,7.643284794922119,101.01785068174729,-16.48687636247196,121.45842964670784,-8.843591567549836,6.496048306226464,4.304207221096616,0.0,0.0,42.624056047422435,-15.161269478967332,33.22425695336204,-4.0683312376868095,25.16953768096281,2.7427243541821777,20.440578964960554,7.643284794922119,11,2.024762487134413e-15,1.1806519602364924e-15,1.1102230246251565e-13,0.0,0.06614555854282766,1.034472847128342,0.06614555854282766
0.31333035480767074,127.41136539901312,-4.759527640459474,120.55703588588769,-9.24117142399166,109.6882517451606,-4.452427637284643,10.868784140727087,-4.788743786707016,19.573044373596822,7.215683576920105,100.98399151229087,-16.456855000911776,120.55703588588769,-9.24117142399166,6.854329513125432,4.481643783532185,0.0,0.0,42.595465785841036,-15.152722684671934,33.16672751137572,-4.061668623246845,25.22179821507412,2.7575363070070065,19.573044373596822,7.215683576920105,11,1.1249569476953415e-15,1.8127161343756453e-15,1.1102230246251565e-13,0.0,0.0542205585428277,1.022547847128342,0.0542205585428277
0.3160314785560127,126.65169634681484,-4.901026299223082,119.43402897006781,-9.556976095764767,110.90297132104916,-5.748171184980464,8.53105764901865,-3.8088049107843034,18.943512508713816,6.956762265972241,100.490516461354,-16.513738361737012,119.43402897006781,-9.556976095764767,7.217667376747024,4.655949796541686,0.0,0.0,42.56321925027101,-15.142635267521005,33.11061016681298,-4.055212386284946,24.816687044270022,2.6841092920689302,18.943512508713816,6.956762265972241,11,1.006872680566783e-15,1.2627411651784317e-15,1.1102230246251565e-13,0.0,0.04229555854282796,1.0106228471283423,0.04229555854282796
0.31873260230435474,126.28042501549483,-4.975886425538495,118.69429995990275,-9.80289960756513,112.53074909033253,-7.014797140434297,6.163550869570216,-2.788102467130834,18.54732629186711,6.734428855083912,100.14697366803564,-16.53732846264904,118.69429995990275,-9.80289960756513,7.5861250555920785,4.8270131820266355,0.0,0.0,42.52731410694619,-15.131062087492115,33.05625541949129,-4.049061183211684,24.563404141598152,2.6427948080547576,18.54732629186711,6.734428855083912,11,1.4011314459892725e-15,1.6998677504311984e-15,5.551115123125783e-14,0.0,0.030370558542827775,0.9986978471283421,0.030370558542827775
0.3214337260526967,125.56710290718974,-5.203618087554926,117.60729067132011,-10.198366266909147,113.84096259620271,-8.47238458912048,3.7663280751174,-1.725981677788667,17.709519872205064,6.342159975282957,99.89777079911504,-16.540526242192104,117.60729067132011,-10.198366266909147,7.9598122358696175,4.994748179354222,0.0,0.0,42.487741247202734,-15.118053484729238,33.00415751347992,-4.043321522058946,24.40587203843238,2.620848764596081,17.709519872205064,6.342159975282957,11,1.2291445415651786e-15,1.1385052774579455e-15,3.469446951953614e-14,0.0,0.01844555854282781,0.9867728471283421,0.01844555854282781
0.3241348498010387,124.73558791643724,-5.675132155994069,119.67848766888422,-9.051649019798745,118.3390073677669,-8.429857715819367,1.3394803011173195,-0.6217913039793785,19.833990818215252,7.451619257977443,99.84449685066896,-16.50326827777619,119.67848766888422,-9.051649019798745,5.057100247553018,3.376516863804676,0.0,0.0,42.44450799166336,-15.103661909700133,32.95539409206576,-4.038110770938994,24.444594766939844,2.6385044028629405,19.833990818215252,7.451619257977443,12,8.936835021017328e-16,1.9453368111149483e-15,5.551115123125783e-14,3.469446951953614e-18,0.006520558542827848,1.0493356958577944,0.006520558542827848
0.3268359735493807,124.26780641075376,-5.643627109384605,118.8951703073473,-9.183319462455735,97.70153506024488,-0.4207389914979771,21.19363524710242,-8.762580470957758,19.318216708618376,7.2231100729012425,99.57695359872893,-16.406429535356992,118.8951703073473,-9.183319462455735,5.372636103406466,3.5396923530711306,0.0,0.0,42.23319604024853,-15.016781767235194,32.90888978563212,-4.033161610539343,24.434867772848264,2.6435138424175584,19.318216708618376,7.2231100729012425,11,1.0096690092177133e-15,1.1903354800939381e-15,1.1102230246251565e-13,0.0,0.10998352407675838,1.0374106958577942,0.10998352407675838
0.3295370972977227,124.09693274421713,-5.691026028888407,118.40232174227248,-9.392409981242935,99.38454307920148,-1.4197692335026133,19.017778663071,-7.972640747740321,18.88917731945246,7.0038025275238365,99.51314442282002,-16.39621250876677,118.40232174227248,-9.392409981242935,5.694611001944655,3.701383952354528,0.0,0.0,42.222867463704,-15.015539669649822,32.862715774962915,-4.028064670025589,24.427561184153095,2.647391830908651,18.88917731945246,7.0038025275238365,11,1.0253269003004856e-15,1.4504946292896518e-15,5.551115123125783e-14,0.0,0.09805852407675841,1.0254856958577943,0.09805852407675841
0.33223822104606465,123.97488026284742,-5.764126935346708,117.95176477519986,-9.625590328004876,101.13984153067224,-2.4803998158399025,16.81192324452762,-7.145190512164973,18.52184651168471,6.762951378435789,99.42991826351515,-16.388541706440662,117.95176477519986,-9.625590328004876,6.023115487647565,3.8614633926581674,0.0,0.0,42.20873250965275,-15.012544082743371,32.81688781942223,-4.0228764598725775,24.40429793444017,2.646878836175281,18.52184651168471,6.762951378435789,11,1.122537670497419e-15,1.2723059567205497e-15,5.551115123125783e-14,0.0,0.08613352407675845,1.0135606958577943,0.08613352407675845
0.3349393447944067,123.34203754029343,-5.998291619566164,116.98375479208082,-10.01811715838857,102.40759692751004,-3.738490631198985,14.576157864570774,-6.279626527189585,17.66600668326216,6.366889857494574,99.31774810881866,-16.38500701588314,116.98375479208082,-10.01811715838857,6.358282748212611,4.019825538822406,0.0,0.0,42.19096008482579,-15.00790005214105,32.77154389110789,-4.017668689766339,24.355244132884998,2.6405617260242362,17.66600668326216,6.366889857494574,11,1.0540404249027701e-15,2.241478107222125e-15,5.551115123125783e-14,0.0,0.07420852407675826,1.001635695857794,0.07420852407675826
0.33764046854274865,123.05142902084367,-6.062447343486919,116.35114145740303,-10.238833177676128,104.04052673381096,-4.863477654856709,12.310614723592067,-5.375355522819419,17.173573889584436,6.146215997362473,99.17756756781858,-16.385049175038603,116.35114145740303,-10.238833177676128,6.700287563440639,4.176385834189209,0.0,0.0,42.16968534148283,-15.001710116596495,32.72697317614493,-4.012526223382716,24.280909050190825,2.6291871649406104,17.173573889584436,6.146215997362473,11,1.042915453271887e-15,1.6335656048739913e-15,5.551115123125783e-14,0.0,0.0622835240767583,0.9897106958577943,0.0622835240767583
0.3403415922910906,122.45545781515237,-6.260205297776868,115.406112515767,-10.591283121615902,105.39066584460794,-6.159497538837783,10.015446671159069,-4.431785582778119,16.39337642536537,5.796512275447977,99.01273609040163,-16.387795397063876,115.406112515767,-10.591283121615902,7.049345299385366,4.331077823839034,0.0,0.0,42.14499810285711,-14.99406598706948,32.68357782527056,-4.007545438166963,24.184160162273972,2.6138160281725593,16.39337642536537,5.796512275447977,11,1.2384950823649602e-15,9.959242202507178e-16,5.551115123125783e-14,0.0,0.05035852407675834,0.9777856958577943,0.05035852407675834
0.34304271603943265,122.45627350209523,-6.287122533391412,115.0505625517822,-10.770973289294318,107.35975024680971,-7.322652821813385,7.690812304972496,-3.448320467480933,16.011663091777102,5.584931534287377,99.0388994600051,-16.35590482358169,115.0505625517822,-10.770973289294318,7.405710950313023,4.483850755902906,0.0,0.0,42.11694281464783,-14.985044342173364,32.641752550834504,-4.0028309479245365,24.28020409452278,2.6319704665162025,16.011663091777102,5.584931534287377,11,1.0593281264353223e-15,1.8752598892002367e-15,5.551115123125783e-14,0.0,0.03843352407675815,0.9658606958577941,0.03843352407675815
0.3457438397877746,120.84759475044032,-6.868395714149978,116.07289542861415,-9.94270784293468,110.73602640479824,-7.518350666610722,5.3368690238159076,-2.4243571763239586,17.600320579638208,6.4804456217603335,98.47257484897594,-16.42315346469501,116.07289542861415,-9.94270784293468,4.774699321826181,3.0743121287847033,0.0,0.0,42.08553038231096,-14.974707309042724,32.60206875100459,-3.998492111342589,23.784975715660405,2.550045955690301,17.600320579638208,6.4804456217603335,12,1.0799314553128517e-15,1.79010455692112e-15,5.551115123125783e-14,3.469446951953614e-18,0.02650852407675841,1.0257391126113644,0.02650852407675841
0.3484449635361166,120.4166154244152,-6.938447011085527,115.34074552649346,-10.161178759906527,112.38697289968061,-8.801892420463687,2.9537726268128495,-1.3592863394428392,17.150437689900436,6.277202412342545,98.190307836593,-16.43838117224906,115.34074552649346,-10.161178759906527,5.0758698979217325,3.222731748821,0.0,0.0,42.050759719660526,-14.963107279414782,32.56583171758199,-3.9946491562557007,23.573716399350495,2.5193752634214217,17.150437689900436,6.277202412342545,12,1.2094757188651592e-15,2.089524746107846e-15,5.551115123125783e-14,0.0,0.014583524076758447,1.0138141126113644,0.014583524076758447
0.3511460872844586,120.34111946639028,-6.996372092198765,114.95603917694416,-10.36708314668953,114.41435835681001,-10.114588735581258,0.5416808201341468,-0.2524944111082732,16.688890102371644,6.015351703336523,98.26714907457253,-16.382434850026065,114.95603917694416,-10.36708314668953,5.385080289446121,3.370711054490766,0.0,0.0,42.013938851693275,-14.950602541266427,32.532388558159056,-3.991117523340817,23.720821664720187,2.5592852145811786,16.688890102371644,6.015351703336523,12,1.4441856581906232e-15,1.1232391406395258e-15,5.551115123125783e-14,0.0,0.002658524076758262,1.0018891126113643,0.002658524076758262
0.3538472110328006,120.00104316863832,-6.991755640333163,114.29847727265911,-10.50992214943804,94.60746414440274,-2.299136545581284,19.691013128256373,-8.210785603856756,16.257777786694355,5.8006085107359375,98.04069948596478,-16.31053066017399,114.29847727265911,-10.50992214943804,5.702565895979201,3.5181665091048773,0.0,0.0,41.84807358015176,-14.88182382820733,32.49978406401984,-3.9874901988420444,23.692841841793165,2.5587833668753905,16.257777786694355,5.8006085107359375,11,1.0839527649415177e-15,1.0396699431231506e-15,5.551115123125783e-14,0.0,0.10268882845245497,0.9899641126113643,0.10268882845245497
0.35654833478114256,119.45908199216446,-7.196339979829137,113.43048245268885,-10.861368334036008,95.9137098691817,-3.4559958208867982,17.516772583507148,-7.40537251314921,15.467018453161806,5.44983660587294,97.96346399952705,-16.31120493990895,113.43048245268885,-10.861368334036008,6.028599539475605,3.665028354206872,0.0,0.0,41.84114770237213,-14.881184908722705,32.467855888277036,-3.9838064657222034,23.65446040887788,2.553786434535956,15.467018453161806,5.44983660587294,11,1.0805008904841158e-15,1.5172516306713043e-15,5.551115123125783e-14,0.0,0.09076382845245523,0.9780391126113643,0.09076382845245523
0.3592494585294846,119.43249023070847,-7.24002771062515,113.06899942898822,-11.051266239425303,97.75660268872629,-4.489024529548772,15.312396740261931,-6.562241709876531,15.15567898556735,5.253175845074564,97.91332044342087,-16.30444208449986,113.06899942898822,-11.051266239425303,6.363490801720251,3.8112385288001525,0.0,0.0,41.830444886888415,-14.878853457125329,32.43655933163547,-3.980126643621965,23.646316224897,2.554538016247424,15.15567898556735,5.253175845074564,11,1.1455095912557238e-15,1.9916242896318337e-15,5.551115123125783e-14,0.0,0.07883882845245505,0.9661141126113642,0.07883882845245505
0.36195058227782656,119.19591077021845,-7.307789817368345,112.48832535524352,-11.264538471319831,99.41016902705387,-5.583681505060099,13.07815632818965,-5.680856966259732,14.673056474865213,5.041625205122252,97.81526888037831,-16.30616367644209,112.48832535524352,-11.264538471319831,6.707585414974923,3.9567486539514856,0.0,0.0,41.81625031945907,-14.874980218877807,32.40602646847484,-3.9765273886775105,23.5929920924444,2.545343931113223,14.673056474865213,5.041625205122252,11,1.3612921983104764e-15,1.9059205856313517e-15,5.551115123125783e-14,0.0,0.06691382845245508,0.9541891126113643,0.06691382845245508
0.36465170602616853,118.66651723618402,-7.491133501033592,111.60525252945908,-11.592651581610795,100.79091187631818,-6.831965369080642,10.814340653140903,-4.760686212530153,13.91349915079423,4.7183103040786225,97.69175337866484,-16.31096188568942,111.60525252945908,-11.592651581610795,7.061264706724945,4.101518080577203,0.0,0.0,41.79881376506195,-14.869711831839581,32.37623789722838,-3.973099339730842,23.516701716374513,2.5318492858810018,13.91349915079423,4.7183103040786225,11,1.030064950926312e-15,1.0277052908128775e-15,5.551115123125783e-14,0.0,0.05498882845245512,0.9422641126113643,0.05498882845245512
0.36735282977451056,118.0103049611397,-7.798087755461351,113.40725628017599,-10.64273683475377,104.88602552593218,-6.841546342299992,8.521230754243803,-3.8011904924537774,15.863051428745923,5.67566352835906,97.54420485143007,-16.318400363112833,113.40725628017599,-10.64273683475377,4.603048680963717,2.8446490792924184,0.0,0.0,41.77833508797017,-14.86318110263382,32.346574274307976,-3.9699342744616555,23.419295489151935,2.5147150139826397,15.863051428745923,5.67566352835906,12,1.7843080046656085e-15,1.3671064849596848e-15,5.551115123125783e-14,3.469446951953614e-18,0.04306382845245493,1.000122522419135,0.04306382845245493
0.37005395352285253,117.73219980677831,-7.918233984745534,112.83056851385865,-10.903011813965279,106.63148733905186,-8.101195719989704,6.199081174806793,-2.8018160939755745,15.226665055566466,5.392051086100752,97.6039034582922,-16.29506290006603,112.83056851385865,-10.903011813965279,4.901631292919662,2.984777829219745,0.0,0.0,41.754959821675705,-14.85550100952274,32.31957367537491,-3.9671470917807152,23.52936996124158,2.52758520123742,15.226665055566466,5.392051086100752,12,1.01692120418125e-15,1.8824340355455665e-15,5.551115123125783e-14,0.0,0.03113882845245497,0.988197522419135,0.03113882845245497
0.3727550772711945,117.03764556295381,-8.043620579378521,111.8274949642761,-11.169022821163509,107.97938382914396,-9.407032353671603,3.848111135132143,-1.7619904674919056,14.763557229794028,5.186345015746996,97.06393773448207,-16.35536783691051,111.8274949642761,-11.169022821163509,5.210150598677717,3.1254022417849883,0.0,0.0,41.72883113991981,-14.846773934403965,32.296991897684364,-3.964864611117365,23.03811469687789,2.4562707086108215,14.763557229794028,5.186345015746996,12,9.46581825362865e-16,1.4149893092411388e-15,5.551115123125783e-14,0.0,0.01921382845245523,0.9762725224191351,0.01921382845245523
0.37545620101953653,116.77954757029502,-8.100791896831193,111.25057495520922,-11.367251138475062,109.78207093527693,-10.68612942363088,1.4685040199322827,-0.6811217148441813,14.405452216685376,5.000490063572935,96.84512273852384,-16.36774120204799,111.25057495520922,-11.367251138475062,5.528972615085808,3.266459241643868,0.0,0.0,41.70189928421636,-14.837524099151066,32.277690934846184,-3.9627721972003034,22.865532519461304,2.4325550943033747,14.405452216685376,5.000490063572935,12,1.352311348050704e-15,1.6328232121547816e-15,5.551115123125783e-14,0.0,0.007288828452455043,0.964347522419135,0.007288828452455043
0.3781573247678785,116.62694895913847,-8.124070234595717,110.76845069652046,-11.53196268840938,91.0898290373925,-3.333391364491362,19.678621659127955,-8.198571323918017,13.769198956373055,4.709122364749347,96.9992517401474,-16.241085053158727,110.76845069652046,-11.53196268840938,5.85849826261802,3.4078924538136626,0.0,0.0,41.55839661235697,-14.777470165062141,32.260594084221765,-3.9606920701448924,23.180261043568674,2.497077182048308,13.769198956373055,4.709122364749347,11,1.242316197105762e-15,1.3323318839828319e-15,5.551115123125783e-14,0.0,0.10342031271406515,0.952422522419135,0.10342031271406515
0.38085844851622047,116.20681012704766,-8.27783198534473,110.00764703700621,-11.82748246187834,92.48460971167891,-4.425757513083084,17.523037325327294,-7.401724948795255,13.099882935407356,4.4277889504451196,96.90776410159884,-16.25527141232345,110.00764703700621,-11.82748246187834,6.199163090041455,3.5496504765336097,0.0,0.0,41.55963062970615,-14.779442953352834,32.24529191743429,-3.958663146912965,23.102841554458397,2.4828346879423524,13.099882935407356,4.4277889504451196,11,1.2961004269703886e-15,1.9654146735623527e-15,5.551115123125783e-14,0.0,0.09149531271406519,0.9404975224191352,0.09149531271406519
0.38355957226456244,116.45389561501374,-8.234384630821635,109.90245856329149,-11.926069830912475,94.56515609202609,-5.358678996395746,15.337302471265403,-6.567390834516729,12.951491041207584,4.313978112394834,96.9509675220839,-16.24004794330731,109.90245856329149,-11.926069830912475,6.551437051722243,3.691685200090839,0.0,0.0,41.55743922637976,-14.779888341032015,32.23136862217196,-3.9567327123253637,23.16215967353217,2.4965731100500683,12.951491041207584,4.313978112394834,11,1.002122084944163e-15,1.890421787386335e-15,5.551115123125783e-14,0.0,0.07957031271406545,0.9285725224191352,0.07957031271406545
0.38626069601290447,116.02186980070286,-8.395334075037722,109.10604546343099,-12.22928424368719,95.98438567969838,-6.5342660658244185,13.12165978373261,-5.695018177862771,12.231402626349013,4.019520327179716,96.87464283708198,-16.248804570866902,109.10604546343099,-12.22928424368719,6.915824337271868,3.833950168649467,0.0,0.0,41.55209136398132,-14.778943755305079,32.21620259179297,-3.954949140563082,23.106348881307678,2.4850883250012643,12.231402626349013,4.019520327179716,11,1.0374849919063093e-15,1.4005555442267767e-15,5.551115123125783e-14,0.0,0.06764531271406526,0.916647522419135,0.06764531271406526
0.38896181976124644,115.11709650410614,-8.767106643681629,110.57730374190274,-11.44908306200967,99.70091685115173,-6.6650150867927564,10.876386890751007,-4.784067975216914,13.808512204924764,4.812453779063846,96.76879153697799,-16.261536841073518,110.57730374190274,-11.44908306200967,4.539792762203405,2.6819764183280417,0.0,0.0,41.54384646006003,-14.776752860323596,32.19903344836693,-3.9533516282054375,23.025911628551015,2.468567647455515,13.808512204924764,4.812453779063846,12,9.746832784906244e-16,2.1525455533791435e-15,5.551115123125783e-14,3.469446951953614e-18,0.0557203127140653,0.9732072290195056,0.0557203127140653
0.3916629435095884,115.06742314818058,-8.79428742956331,110.22075578720532,-11.613368230915576,101.61899008684358,-7.779367614107535,8.601765700361739,-3.8340006168080407,13.571633831102048,4.661031606589994,96.64912195610327,-16.274399837505584,110.22075578720532,-11.613368230915576,4.846667360975264,2.8190808013522655,0.0,0.0,41.53294028826633,-14.773456333282931,32.18354664636212,-3.9520348779922205,22.932635021474816,2.4510913737695788,13.571633831102048,4.661031606589994,12,1.1181764305170806e-15,1.3707734553517524e-15,5.551115123125783e-14,0.0,0.04379531271406534,0.9612822290195058,0.04379531271406534
0.39436406725793044,114.80237330611935,-8.861240730766966,109.63666751070302,-11.818756440300632,103.33861141331995,-8.974491812862631,6.298056097383068,-2.844264627438001,13.13199193131964,4.4711558402150215,96.50467557938339,-16.289912280515665,109.63666751070302,-11.818756440300632,5.165705795416325,2.957515709533667,0.0,0.0,41.51957419774237,-14.76918374080737,32.17230584157647,-3.9511383551111496,22.812795540064542,2.430409815402852,13.13199193131964,4.4711558402150215,12,9.671118797614407e-16,1.3484547768932997e-15,8.326672684688674e-14,0.0,0.03187031271406515,0.9493572290195056,0.03187031271406515
0.3970651910062724,114.527155832444,-8.996312995265285,109.02975121319075,-12.093535577861722,105.06427437691924,-10.279247627365372,3.965476836271506,-1.8142879504963503,12.462454995052736,4.189388252585285,96.56729621813801,-16.282923830447,109.02975121319075,-12.093535577861722,5.49740461925324,3.0972225825964372,0.0,0.0,41.50480312370726,-14.764260032498257,32.165845528329385,-3.9506044020990885,22.896647566101368,2.4319406041503395,12.462454995052736,4.189388252585285,12,1.0356791965502796e-15,2.1089095663129437e-15,8.326672684688674e-14,0.0,0.01994531271406519,0.9374322290195056,0.01994531271406519
0.3997663147546144,114.0068396684689,-9.083020803705887,108.16454445050853,-12.321164817536072,106.56034932011228,-11.577692149311936,1.6041951303962492,-0.7434726682241362,12.120457696200862,4.015247737083467,96.04408675430767,-16.336412554619546,108.16454445050853,-12.321164817536072,5.842295217960365,3.238144013830185,0.0,0.0,41.49044640547008,-14.759198820879714,32.16297220632866,-3.9501591280108634,22.390668142508936,2.3729453942710297,12.120457696200862,4.015247737083467,12,1.2107685717687695e-15,2.472971095050293e-15,8.326672684688674e-14,0.0,0.008020312714065225,0.9255072290195057,0.008020312714065225
0.4024674385029564,114.00341257016588,-9.082793342700459,107.80246868707081,-12.463015584082193,88.85484497571099,-4.536861236901252,18.947623711359824,-7.92615434718094,11.511373230934543,3.7643901969508162,96.29109545613628,-16.227405781033013,107.80246868707081,-12.463015584082193,6.200943883095062,3.380222241381733,0.0,0.0,41.37969218951642,-14.711991351324947,32.163311237455105,-3.949841235701509,22.748092029164756,2.4344268059934464,11.511373230934543,3.7643901969508162,11,1.3608997922221844e-15,1.1735363510281662e-15,5.551115123125783e-14,0.0,0.09989659963322284,0.9135822290195055,0.09989659963322284
0.4051685622512984,113.55905070924277,-9.241705157787495,106.98509877628386,-12.765102822387846,90.18924025814371,-5.641927438338236,16.79585851814015,-7.12317538404961,10.842846303887654,3.49471153600026,96.14225247239621,-16.259814358388105,106.98509877628386,-12.765102822387846,6.573951932958905,3.5233976646003513,0.0,0.0,41.39054468140984,-14.717037700603537,32.16388508166253,-3.9496811160081915,22.587822709323827,2.4069044582236216,10.842846303887654,3.49471153600026,11,1.0362474067141126e-15,2.318178562697806e-15,5.551115123125783e-14,0.0,0.08797159963322287,0.9016572290195056,0.08797159963322287
0.40786968599964035,113.89445074989447,-9.193685088156116,106.9324948715365,-12.86129247052552,92.31861535605951,-6.578661764647002,14.613879515476995,-6.282630705878518,10.581428933443066,3.3622066348188833,96.35106593809344,-16.22349910534441,106.9324948715365,-12.86129247052552,6.9619558783579745,3.667607382369403,0.0,0.0,41.398628424116204,-14.720845258928847,32.15956182104216,-3.9496545022058402,22.792875692935066,2.447000655790289,10.581428933443066,3.3622066348188833,11,1.4381946601188529e-15,1.5895740821785812e-15,5.551115123125783e-14,0.0,0.07604659963322291,0.8897322290195058,0.07604659963322291
0.4105708097479824,113.0933461250803,-9.526858298858539,108.51087044174152,-12.106774048981997,96.10903054958263,-6.702848532993734,12.40183989215889,-5.403925515988263,12.242828466266772,4.139186641160812,96.26804197547473,-16.245960690142798,108.51087044174152,-12.106774048981997,4.582475683338785,2.5799157501234586,0.0,0.0,41.404134649385696,-14.723520793319913,32.15394088720241,-3.949774301938847,22.709966438886628,2.4273344051159587,12.242828466266772,4.139186641160812,12,1.4427240407957238e-15,1.2120828972324963e-15,5.551115123125783e-14,3.469446951953614e-18,0.06412159963322295,0.9457511046196496,0.06412159963322295
0.41327193349632435,112.7180667057628,-9.654340062969926,107.80995077029469,-12.372721561596286,97.65001970144274,-7.886244123144003,10.159931068851947,-4.486477438452283,11.66212668710421,3.901409015835407,96.14782408319049,-16.2741305774317,107.80995077029469,-12.372721561596286,4.908115935468099,2.7183814986263606,0.0,0.0,41.40724719798931,-14.72517766590019,32.1510567365642,-3.9501343909134548,22.589520148636986,2.401181479381945,11.66212668710421,3.901409015835407,12,1.466306171723803e-15,1.7767575797207564e-15,5.551115123125783e-14,0.0,0.052196599633222984,0.9338261046196498,0.052196599633222984
0.4159730572446663,112.92611646929363,-9.609339810026587,107.6775599390973,-12.468277824956758,99.78920406906991,-8.938572062456082,7.888355870027397,-3.529705762500676,11.560889124901426,3.812020140095534,96.11667081419586,-16.28029796505227,107.6775599390973,-12.468277824956758,5.248556530196327,2.858938014930171,0.0,0.0,41.40813662833721,-14.725929770841082,32.153829933331046,-3.950885662658173,22.5547042525276,2.39651746844698,11.560889124901426,3.812020140095534,12,1.5262388027049454e-15,1.1867888566808026e-15,5.551115123125783e-14,0.0,0.04027159963322302,0.9219011046196498,0.04027159963322302
0.41867418099300835,112.5013827759224,-9.753234385376828,106.89694648763577,-12.754754641023375,101.30964364496705,-10.221734133288976,5.58730284266872,-2.533020507734399,10.909657941535357,3.5500769590381545,95.98728854610042,-16.304831600061533,106.89694648763577,-12.754754641023375,5.604436288286615,3.001520255646547,0.0,0.0,41.40784446525362,-14.726097198214338,32.16305834706056,-3.951994605388844,22.41638573378623,2.3732602035416512,10.909657941535357,3.5500769590381545,12,1.0721474950985474e-15,1.3702912731351484e-15,5.551115123125783e-14,0.0,0.028346599633222835,0.9099761046196497,0.028346599633222835
0.4213753047413503,112.38944833353918,-9.800161664174937,106.41301746316168,-12.946221258058898,103.1560931121647,-11.450408756246496,3.2569243509969823,-1.4958125018124022,10.579087855797294,3.385384448324226,95.83392960736438,-16.331605706383122,106.41301746316168,-12.946221258058898,5.976430870377498,3.146059593883962,0.0,0.0,41.407930931176594,-14.726134472285136,32.1779286102971,-3.953282977605868,22.24807006589071,2.3478117435078705,10.579087855797294,3.385384448324226,12,1.4950275354128894e-15,1.6189109607434325e-15,5.551115123125783e-14,0.0,0.016421599633222872,0.8980511046196498,0.016421599633222872
0.4240764284896923,112.25090492911967,-9.898895130747952,105.8856517882104,-13.191377531143026,104.98833090304193,-12.773931854706575,0.8973208851684689,-0.4174456764364507,9.986960069835686,3.1527638866639087,95.8986917183747,-16.344141417806927,105.8856517882104,-13.191377531143026,6.365253140909279,3.2924824003950732,0.0,0.0,41.40875538588946,-14.726215277449061,32.19794174465885,-3.954818647630857,22.29199458782639,2.3368925072729887,9.986960069835686,3.1527638866639087,12,1.4082926500004011e-15,2.1087195090353503e-15,4.85722573273506e-14,0.0,0.0044965996332229086,0.8861261046196498,0.0044965996332229086
0.4267775522380343,111.94554233290434,-9.951103431217565,105.17388876532773,-13.391812061521293,87.70986213828269,-6.018595547417419,17.464026627045044,-7.3732165141038735,9.32774246649343,2.900338876225651,95.8461462988343,-16.29215093774694,105.17388876532773,-13.391812061521293,6.7716535675766005,3.4407086303037286,0.0,0.0,41.3376968178345,-14.694647484810918,32.206041815325186,-3.956515819651834,22.302407665674625,2.3590123667158096,9.32774246649343,2.900338876225651,11,1.1928401632449401e-15,1.4233131825394447e-15,5.551115123125783e-14,0.0,0.09188112846485352,0.8742011046196496,0.09188112846485352
0.4294786759863763,111.89280962519751,-9.989715068967701,104.69638897095899,-13.580365481656514,89.39676694550344,-7.032204082326146,15.299622025455548,-6.548161399330368,8.968144538362163,2.7513736154537867,95.72824443259682,-16.331739097110294,104.69638897095899,-13.580365481656514,7.196420654238526,3.590650412688813,0.0,0.0,41.359884273770064,-14.703395824339125,32.21457401504811,-3.958386284286341,22.15378614377864,2.3300430115151745,8.968144538362163,2.7513736154537867,11,1.0411456754280168e-15,1.8387401322533776e-15,5.551115123125783e-14,0.0,0.07995612846485356,0.8622761046196498,0.07995612846485356
0.43217979973471826,111.56125854419636,-10.221167835636162,106.83217916113105,-12.753452048626045,93.72761171340446,-7.068467063965727,13.104567447726595,-5.684984984660318,10.798192549839165,3.5379771446733415,96.0339866112919,-16.291429193299393,106.83217916113105,-12.753452048626045,4.729079383065305,2.532284212989882,0.0,0.0,41.3798712398552,-14.711161650764943,32.21843377433299,-3.9603574652214046,22.4356815971037,2.3800899226869507,10.798192549839165,3.5379771446733415,12,1.060655888820018e-15,1.9862877600139192e-15,5.551115123125783e-14,3.469446951953614e-18,0.0680311284648536,0.918527249972749,0.0680311284648536
0.4348809234830603,111.25085468674887,-10.336606305986658,106.16682314929444,-13.012544368067644,95.28789355199275,-8.229502003293739,10.878929597301692,-4.783042364773905,10.258376068536938,3.3219411182986995,95.9084470807575,-16.334485486366336,106.16682314929444,-13.012544368067644,5.084031537454427,2.6759380620809856,0.0,0.0,41.397781972807714,-14.718027308432944,32.23081671655615,-3.9626631834611707,22.279848391393628,2.3462050055277768,10.258376068536938,3.3219411182986995,12,9.56098690535252e-16,1.3412348118473687e-15,5.551115123125783e-14,0.0,0.05610612846485341,0.9066022499727489,0.05610612846485341
0.43758204723140226,111.55771317406206,-10.285950265183532,106.10077347058758,-13.108353880822776,97.47796470854709,-9.266655845500154,8.622808762040492,-3.841698035322622,10.079806404555868,3.2177513175448613,96.02096706603172,-16.326105198367635,106.10077347058758,-13.108353880822776,5.456939703474478,2.822403615639244,0.0,0.0,41.413832787839766,-14.724103654819013,32.25236957160303,-3.965433601956617,22.35476470658892,2.3634320584079855,10.079806404555868,3.2177513175448613,12,1.3851376378285435e-15,1.2105525739024222e-15,5.551115123125783e-14,0.0,0.04418112846485345,0.8946772499727489,0.04418112846485345
0.44028317097974423,111.20395568628983,-10.416874020050887,105.35534966513538,-13.388474545551823,99.01903430632281,-10.528158214093366,6.33631535881257,-2.8603163314584563,9.446022941859818,2.973649357636968,95.90932672327557,-16.36212390318879,105.35534966513538,-13.388474545551823,5.848606021154447,2.9716005255009366,0.0,0.0,41.42950472777254,-14.729809018595653,32.2837898357037,-3.968556083808066,22.19603215979932,2.3362411992149337,9.446022941859818,2.973649357636968,12,1.3509677423921483e-15,1.6962858357341307e-15,4.163336342344337e-14,0.0,0.032256128464853706,0.882752249972749,0.032256128464853706
0.44298429472808626,111.17977060029658,-10.454345354821687,104.91989747401219,-13.57778566942109,100.90035042668595,-11.739534134809752,4.019547047326242,-1.838251534611338,9.118342426787153,2.8157061102826146,95.80155504722504,-16.393491779703705,104.91989747401219,-13.57778566942109,6.259873126284392,3.123440314599404,0.0,0.0,41.445531425338466,-14.735400558642926,32.32211919354766,-3.972040691870129,22.033904428338914,2.313949470809348,9.118342426787153,2.8157061102826146,12,1.1828482135107529e-15,1.3239493433838696e-15,8.326672684688674e-14,0.0,0.02033112846485352,0.8708272499727489,0.02033112846485352
0.44568541847642823,110.87809374574547,-10.554642703815349,104.18646902162625,-13.83246764045689,102.51390100618617,-13.057629287643692,1.6725680154400777,-0.7748383528131981,8.531416705869225,2.597308924483921,95.65505231575703,-16.42977656494081,104.18646902162625,-13.83246764045689,6.691624724119224,3.277824936641542,0.0,0.0,41.46225744988407,-14.741044905724126,32.36056610528321,-3.975883163711149,21.83222876058975,2.287151504494469,8.531416705869225,2.597308924483921,12,1.1215154097825727e-15,1.2445876944031293e-15,5.551115123125783e-14,0.0,0.008406128464853557,0.8589022499727489,0.008406128464853557
0.4483865422247702,110.67423524545052,-10.636341570269124,103.529449062305,-14.0709868953425,86.1845038174464,-6.742430143496172,17.344945244858607,-7.328556751846328,7.870836949284481,2.3585439367393266,95.65861211302052,-16.429530832081827,103.529449062305,-14.0709868953425,7.144786183145519,3.434645325073377,0.0,0.0,41.4109193628141,-14.716712214876438,32.4300244530435,-3.98051085798075,21.81766829716292,2.267692240775366,7.870836949284481,2.3585439367393266,11,1.339053200409445e-15,9.79908834470968e-16,5.551115123125783e-14,0.0,0.09118881594883255,0.846977249972749,0.09118881594883255
0.4510876659731122,110.87993895754056,-10.615543056243451,103.2596138116235,-14.209322985531792,88.0782032557556,-7.706776239290079,15.181410555867899,-6.502546746241713,7.536327769237977,2.223089853027633,95.72328604238551,-16.432412838559422,103.2596138116235,-14.209322985531792,7.620325145917069,3.5937799292883406,0.0,0.0,41.448205423267304,-14.730717507045286,32.3948044738785,-3.983778413241314,21.8802761452397,2.282083081727178,7.536327769237977,2.223089853027633,11,1.0676503591613804e-15,1.5128956395352284e-15,5.551115123125783e-14,0.0,0.07926381594883258,0.8350522499727491,0.07926381594883258
0.4537887897214542,110.62395465579766,-10.85269355670189,105.64578882514138,-13.386510406229299,92.65935881965102,-7.748465297512112,12.986430005490362,-5.638045108717186,9.52065741197247,3.0191049174940234,96.12513141316892,-16.405615323723325,105.64578882514138,-13.386510406229299,4.978165830656273,2.5338168495274087,0.0,0.0,41.48365672768971,-14.743891234951523,32.426501520758805,-3.9882653324886714,22.214973164720398,2.326541243716866,9.52065741197247,3.0191049174940234,12,1.107128295108673e-15,2.1642716438635438e-15,5.551115123125783e-14,0.0,0.06733881594883262,0.8923022256547071,0.06733881594883262
0.45648991346979617,110.33717097204703,-10.957680015882918,104.9637164146375,-13.643900558892376,94.20378842038157,-8.909569383809796,10.759927994255932,-4.7343311750825805,8.99510397474818,2.8169307468080467,95.96861243988933,-16.46083130570042,104.9637164146375,-13.643900558892376,5.373454557409533,2.686220543009458,0.0,0.0,41.517378064351234,-14.756293077601185,32.4478503164606,-3.9927257886317467,22.003384059077483,2.2881875605325117,8.99510397474818,2.8169307468080467,12,1.2388872830415155e-15,1.154429832132214e-15,5.551115123125783e-14,0.0,0.055413815948832656,0.8803772256547072,0.055413815948832656
0.45919103721813814,110.76309676384308,-10.897312470185703,104.97259556949801,-13.739467873863873,96.47071376260703,-9.948767977542389,8.501881806890978,-3.7906998963214846,8.735596204991566,2.699093190400828,96.23699936450645,-16.438561064264697,104.97259556949801,-13.739467873863873,5.790501194345074,2.842155403678169,0.0,0.0,41.55050493667355,-14.768240190751037,32.497980428284116,-3.9979478258783807,22.188513999548782,2.327626952364721,8.735596204991566,2.699093190400828,12,9.967639745633802e-16,1.6629835901941278e-15,5.551115123125783e-14,0.0,0.04348881594883269,0.8684522256547073,0.04348881594883269
0.46189216096648017,110.46710779056299,-11.017471855240071,104.23680883294566,-14.01898902114361,98.02450845989244,-11.21253556422812,6.2123003730532105,-2.8064534569154915,8.123334780453458,2.4719944589729486,96.1134740524922,-16.490983480116554,104.23680883294566,-14.01898902114361,6.230298957617338,3.0015171659035405,0.0,0.0,41.58384965367566,-14.779994796398915,32.55945554515116,-4.00369857807091,21.970168853665367,2.292709894353278,8.123334780453458,2.4719944589729486,12,1.0227152441412238e-15,1.0895724043677495e-15,5.551115123125783e-14,0.0,0.03156381594883251,0.8565272256547071,0.03156381594883251
0.46459328471482214,110.5372837065509,-11.044180183633696,103.84339736106325,-14.208368776486296,99.95219447524653,-12.427476438128345,3.8912028858167247,-1.7808923383579511,7.741651533413204,2.3068530897595365,96.10174582765005,-16.515221866245827,103.84339736106325,-14.208368776486296,6.6938863454876465,3.1641885928526006,0.0,0.0,41.61770430038344,-14.7917054281172,32.62308525596457,-4.009967762003173,21.860956271302047,2.2864513238745445,7.741651533413204,2.3068530897595365,12,1.3766107826152013e-15,1.3764817692549468e-15,5.551115123125783e-14,0.0,0.019638815948832544,0.8446022256547072,0.019638815948832544
0.4672944084631641,110.30224359153246,-11.131128449884521,103.1198957755536,-14.461166375398342,101.581297654982,-13.747860197154367,1.5385981205716064,-0.7133061782439754,7.152296919173924,2.100125149428227,95.96759885637967,-16.56129152482656,103.1198957755536,-14.461166375398342,7.182347815978852,3.33003792551382,0.0,0.0,41.65235119698981,-14.803521386114511,32.68112384018188,-4.016581344900185,21.634123819207982,2.2588112061881223,7.152296919173924,2.100125149428227,12,1.067939320505747e-15,1.2306683618191172e-15,2.7755575615628914e-14,0.0,0.007713815948832581,0.8326772256547073,0.007713815948832581
0.46999553221150614,110.52180273855886,-11.110011106631047,102.82498827530462,-14.608928415816536,86.38784509982658,-7.62202286199733,16.43714317547804,-6.986905553819206,6.821367439595363,1.9690578258115736,96.00362083570926,-16.577986241628107,102.82498827530462,-14.608928415816536,7.696814463254243,3.4989173091854884,0.0,0.0,41.62344474883858,-14.787237890410141,32.825564536337524,-4.025388435488825,21.55461155053315,2.234640084270861,6.821367439595363,1.9690578258115736,11,1.2446476004497072e-15,1.534410292270489e-15,1.1102230246251565e-13,0.0,0.08591415599915075,0.8207522256547071,0.08591415599915075
0.4726966559598481,110.5171964392717,-11.171025829110718,102.27873175063496,-14.841687025485378,88.02182026550412,-8.698585083446645,14.256911485130843,-6.143101942038733,6.179415250732662,1.7511363227412344,96.0993164999023,-16.59282334822661,102.27873175063496,-14.841687025485378,8.238464688636734,3.67066119637466,0.0,0.0,41.67772405888799,-14.807098228971489,32.71042789999276,-4.028600903143417,21.711164541021553,2.2428757838882927,6.179415250732662,1.7511363227412344,11,1.517003898267178e-15,1.3417405614040415e-15,5.551115123125783e-14,0.0,0.07398915599915079,0.8088272256547071,0.07398915599915079
0.4753977797081901,110.24438387627913,-11.431955942201906,104.91577265816399,-14.012578608028775,92.87140281840173,-8.75250475996495,12.044369839762254,-5.260073848063826,8.37150566277364,2.5714974382241453,96.54426699539036,-16.584076046252925,104.91577265816399,-14.012578608028775,5.328611218115144,2.5806226658268683,0.0,0.0,41.73073136127989,-14.82637229197892,32.76749612833753,-4.0355768065312105,22.04603950577294,2.2778730522572097,8.37150566277364,2.5714974382241453,12,1.0737040960335682e-15,1.3254203415173137e-15,5.551115123125783e-14,3.469446951953614e-18,0.06206415599915083,0.8678144674970794,0.06206415599915083
0.4780989034565321,110.78172894664978,-11.347643024482846,105.00570646944723,-14.092974120127238,95.20643171659253,-9.75596478724652,9.7992747528547,-4.337009332880719,8.141423312461813,2.4719804890907517,96.86428315698541,-16.564954609217974,105.00570646944723,-14.092974120127238,5.776022477202541,2.745331095644393,0.0,0.0,41.783728286254735,-14.845376044044103,32.81730879727211,-4.042090177000757,22.263246073458554,2.322511611826881,8.141423312461813,2.4719804890907517,12,1.2688015974351461e-15,1.2683267845721875e-15,5.551115123125783e-14,0.0,0.05013915599915064,0.8558894674970792,0.05013915599915064
0.4808000272048741,110.59645964362853,-11.448183144649423,104.34668910652465,-14.362510342456098,96.82524592553504,-10.98939771914948,7.521443180989607,-3.3731126233066178,7.585363870676755,2.26769364962665,96.7613252358479,-16.630203992082762,104.34668910652465,-14.362510342456098,6.249770537103887,2.9143271978066743,0.0,0.0,41.83717200097574,-14.864261919664997,32.90524177219185,-4.050047446548431,22.01891146268032,2.284105374130661,7.585363870676755,2.26769364962665,12,1.6822700837840202e-15,1.1013578848687945e-15,5.551115123125783e-14,0.0,0.03821415599915068,0.8439644674970792,0.03821415599915068
0.48350115095321605,110.77642534293587,-11.46346934929373,104.02535422337677,-14.550942543149063,98.81461894827152,-12.18334508844329,5.21073527510525,-2.3675974547057734,7.161389619371897,2.0973195037655303,96.86396460400488,-16.648262046914596,104.02535422337677,-14.550942543149063,6.751071119559106,3.0874731938553324,0.0,0.0,41.89116097467103,-14.883109355266079,32.99748122292472,-4.058742196349803,21.97532240640913,2.2935895047012895,7.161389619371897,2.0973195037655303,12,1.093135666313939e-15,9.556327436692845e-16,5.551115123125783e-14,0.0,0.026289155999150715,0.8320394674970794,0.026289155999150715
0.4862022747015581,110.52745356788502,-11.573615535346926,103.24626308957478,-14.838228373204544,100.37922659648177,-13.518548637488173,2.8670364930930106,-1.3196797357163703,6.483153713070919,1.8659275018634718,96.76310937650386,-16.704155875068015,103.24626308957478,-14.838228373204544,7.281190478310232,3.2646128378576176,0.0,0.0,41.94582146282603,-14.902011248758772,33.08409253733399,-4.0679395263719105,21.73319537634385,2.2657949000626605,6.483153713070919,1.8659275018634718,12,1.5915311486460264e-15,1.575293879537573e-15,1.1102230246251565e-13,0.0,0.01436415599915053,0.8201144674970792,0.01436415599915053
0.48890339844990005,110.35123852800719,-11.647630978556071,102.5097924904586,-15.093200669809967,102.01955207679528,-14.864630544367998,0.49024041366331517,-0.2285701254419692,5.900962643682539,1.6721837887343565,96.60882984677606,-16.765384458544325,102.5097924904586,-15.093200669809967,7.841446037548598,3.4455696912538953,0.0,0.0,42.00128772089542,-14.921066428837733,33.1576945732039,-4.0772702190393275,21.449847552676747,2.2329521893327353,5.900962643682539,1.6721837887343565,12,9.345878843447225e-16,1.6414908504834556e-15,5.551115123125783e-14,0.0,0.0024391559991507883,0.8081894674970793,0.0024391559991507883
0.491604522198242,111.40128825047208,-11.582296974940068,102.96808125010942,-15.212442344137983,88.21603456296047,-8.872145441845277,14.752046687148948,-6.340296902292707,5.575860052263682,1.5487073548538381,97.39222119784574,-16.761149698991822,102.96808125010942,-15.212442344137983,8.43320700036266,3.6301453691979146,0.0,0.0,42.00872270499362,-14.918729374246036,33.41978956933734,-4.092497647478128,21.963708923514787,2.2500773227323396,5.575860052263682,1.5487073548538381,11,1.3469060593322627e-15,1.2513389739161985e-15,5.551115123125783e-14,0.0,0.07620567080053076,0.7962644674970794,0.07620567080053076
0.49430564594658405,111.4140575604224,-11.60253235333003,102.35616263853423,-15.420650112013696,89.82090216105992,-9.959923138081535,12.53526047747431,-5.460726973932161,4.902949935874651,1.3352674488384957,97.45321270265958,-16.755917560852197,102.35616263853423,-15.420650112013696,9.057894921888172,3.818117758683666,0.0,0.0,42.08099820832471,-14.944686325620912,33.18917949043878,-4.091683487620463,22.183035003896094,2.280452252389173,4.902949935874651,1.3352674488384957,11,1.1286738638283048e-15,1.2382995807534214e-15,5.551115123125783e-14,0.0,0.06428067080053057,0.7843394674970792,0.06428067080053057
0.497006769694926,110.50244778559171,-11.964869264918352,104.72347255420878,-14.635303296912078,94.43862135472045,-10.094662004660726,10.28485119948833,-4.540641292251351,7.362375739917076,2.1956093498081644,97.36109681429171,-16.83091264672025,104.72347255420878,-14.635303296912078,5.778975231382931,2.6704340319937248,0.0,0.0,42.15375539294742,-14.970539169560677,33.296831896765624,-4.101374542734394,21.91050952457868,2.2410010655748227,7.362375739917076,2.1956093498081644,12,1.43981069949269e-15,1.4481401550260934e-15,8.326672684688674e-14,3.469446951953614e-18,0.05235567080053061,0.8457534939475417,0.05235567080053061
0.499707893443268,111.22320013427567,-11.858048385697494,104.93202710415147,-14.709271838445794,96.93152366554494,-11.130102447320112,8.000503438606529,-3.5791693911256814,7.17068507673015,2.1104520217859277,97.76134202742134,-16.819723860231726,104.93202710415147,-14.709271838445794,6.291173030124202,2.8512234527483,0.0,0.0,42.2269164871426,-14.99629244995538,33.380944956726154,-4.110104525134503,22.153480583552586,2.2866731148581483,7.17068507673015,2.1104520217859277,12,1.3769083157208876e-15,1.6187862545771507e-15,1.1102230246251565e-13,0.0,0.040430670800530866,0.8338284939475418,0.040430670800530866
0.50240901719161,111.08059709143639,-11.949299955130018,104.24541448311788,-14.986434619726609,98.56345029728777,-12.410978037054605,5.681964185830111,-2.575456582672004,6.615496266531137,1.914125289463378,97.62991821658674,-16.90055990918998,104.24541448311788,-14.986434619726609,6.835182608318506,3.037134664596591,0.0,0.0,42.30043257541817,-15.021970548304443,33.50405073351851,-4.121478355442225,21.82543490765007,2.2428889945566883,6.615496266531137,1.914125289463378,12,1.1507454514099566e-15,1.1380348552072986e-15,5.551115123125783e-14,0.0,0.02850567080053068,0.8219034939475417,0.02850567080053068
0.505110140939952,111.37545056822812,-11.949701113767947,103.96297713998378,-15.177686369568136,100.63394797617745,-13.649027585289595,3.329029163806325,-1.5286587842785408,6.0667330578222,1.72075717765882,97.89624408216159,-16.898443547226954,103.96297713998378,-15.177686369568136,7.412473428244339,3.227985255800189,0.0,0.0,42.37432110443669,-15.047624527341576,33.61755700732847,-4.1335967982949136,21.904365970396427,2.28277777840953,6.0667330578222,1.72075717765882,12,1.0016353623177845e-15,1.694143724747399e-15,8.326672684688674e-14,0.0,0.016580670800530717,0.8099784939475417,0.016580670800530717
0.507811264688294,111.15685135410962,-12.050205765547398,103.13228105163289,-15.473773734871799,102.19075416415092,-15.035837738365188,0.9415268874819702,-0.4379359965066101,5.374117288603069,1.4964995728052148,97.75816376302981,-16.970273307677004,103.13228105163289,-15.473773734871799,8.02457030247673,3.4235679693244006,0.0,0.0,42.44864111183553,-15.073323529554907,33.70231144570362,-4.145817225293648,21.607211205490668,2.2488674471715466,5.374117288603069,1.4964995728052148,12,1.3724760736034392e-15,1.2338821403487858e-15,5.551115123125783e-14,0.0,0.0046556708005307534,0.7980534939475419,0.0046556708005307534
0.5105123884366359,112.45843447511325,-11.963043161784798,103.78538067327997,-15.58669193212274,89.27491297252362,-9.336635496762291,14.510467700756351,-6.250056435360449,5.097826460777834,1.392443928705506,98.68755421250214,-16.979135860828244,103.78538067327997,-15.58669193212274,8.673053801833273,3.6236487703379416,0.0,0.0,42.47449012062447,-15.077406561053685,34.0838327029433,-4.168243769849401,22.129231388934357,2.266514470074842,5.097826460777834,1.392443928705506,11,1.3858624558504313e-15,1.100167409553646e-15,5.551115123125783e-14,0.0,0.07426172876833892,0.7861284939475419,0.07426172876833892
0.5132135121849779,112.57756245023405,-11.96320367929283,103.21800185388028,-15.791168566095202,90.94521374361656,-10.433197718026634,12.272788110263718,-5.357970848068568,4.433235540453669,1.1869933319582797,98.78476631342662,-16.978161898053486,103.21800185388028,-15.791168566095202,9.359560596353779,3.827964886802372,0.0,0.0,42.566067614344256,-15.110064879813617,33.79377114900939,-4.163837897655082,22.42492755007297,2.295740879415222,4.433235540453669,1.1869933319582797,11,1.0918549237214727e-15,1.2419656125650488e-15,1.1102230246251565e-13,0.0,0.06233672876833918,0.774203493947542,0.06233672876833918
0.51591463593332,112.50905296546694,-12.050811660545872,102.42326924259339,-16.087034485726825,92.42305883138182,-11.662551328800408,10.000210411211569,-4.424483156926417,3.7187675922147103,0.9752903811772045,98.70450165037869,-17.062324866904035,102.42326924259339,-16.087034485726825,10.085783722873549,4.036222825180952,0.0,0.0,42.65790342693007,-15.142582160754777,33.93236512949491,-4.17636786194247,22.114233093953697,2.256625155793218,3.7187675922147103,0.9752903811772045,11,1.122583027466175e-15,1.6458997543856787e-15,5.551115123125783e-14,0.0,0.05041172876833877,0.7622784939475415,0.05041172876833877
0.518615759681662,112.00146668442159,-12.36702370716499,105.6748685369734,-15.169722223831236,97.98250959420082,-11.721046639563475,7.692358942772586,-3.448675584267761,6.518143921971178,1.8936729662831495,99.15672461500222,-17.06339519011438,105.6748685369734,-15.169722223831236,6.326598147448181,2.802698516666247,0.0,0.0,42.74974094244035,-15.174904490568137,34.04905733884401,-4.1879869704158015,22.357926333717852,2.2994962708695628,6.518143921971178,1.8936729662831495,12,1.1419956740011329e-15,1.2866958685301635e-15,5.551115123125783e-14,3.469446951953614e-18,0.03848672876833881,0.8267404908303818,0.03848672876833881
0.5213168834300039,112.35185513524523,-12.322294050397542,105.4348187623766,-15.32606783482371,100.08589969790566,-12.896423485352706,5.348919064470934,-2.4296443494710047,6.376135411493303,1.8237791869240279,99.05868335088329,-17.14984702174774,105.4348187623766,-15.32606783482371,6.917036372868643,3.0037737844261696,0.0,0.0,42.84140204712354,-15.207008246802435,34.19768907344054,-4.203130685304293,22.019592230319187,2.260291910358996,6.376135411493303,1.8237791869240279,12,1.1265385682851065e-15,1.5326828097659004e-15,5.551115123125783e-14,0.0,0.026561728768338844,0.814815490830382,0.026561728768338844
