time_s,total_vertical_force_n,total_pitch_moment_nm,raw_bem_vertical_force_n,raw_bem_pitch_moment_nm,resolved_station_bem_vertical_force_n,resolved_station_bem_pitch_moment_nm,transom_extrapolation_vertical_force_n,transom_extrapolation_pitch_moment_nm,pre_chine_bem_vertical_force_n,pre_chine_bem_pitch_moment_nm,post_chine_bem_vertical_force_n,post_chine_bem_pitch_moment_nm,bem_vertical_force_n,bem_pitch_moment_nm,front_vertical_force_n,front_pitch_moment_nm,transom_vertical_force_n,transom_pitch_moment_nm,longitudinal_bin_aft_post_chine_vertical_force_n,longitudinal_bin_aft_post_chine_pitch_moment_nm,longitudinal_bin_middle_post_chine_vertical_force_n,longitudinal_bin_middle_post_chine_pitch_moment_nm,longitudinal_bin_forward_post_chine_vertical_force_n,longitudinal_bin_forward_post_chine_pitch_moment_nm,longitudinal_bin_pre_chine_vertical_force_n,longitudinal_bin_pre_chine_pitch_moment_nm,active_plane_count,potential_bvp_relative_residual,pressure_bvp_relative_residual,free_surface_pressure_max_abs_pa,contact_constraint_max_abs_m,aftmost_resolved_station_x_m,foremost_resolved_station_x_m,transom_coverage_gap_m
0.0,257.28264416827716,-29.72456766517141,254.49156168697007,-31.588183587330974,254.49156168697007,-31.588183587330974,0.0,0.0,34.48132171667753,13.357507297895367,220.0102399702925,-44.945690885226334,254.49156168697007,-31.588183587330974,2.791082481307061,1.8636159221595656,0.0,0.0,112.98993721438376,-40.86080070239695,66.3487857326385,-8.45773519713164,40.67151702327027,4.37284501430225,34.48132171667753,13.357507297895367,11,1.4925198270057925e-15,1.3571563511552898e-15,4.440892098500626e-13,6.938893903907228e-17,0.0,1.0985454545454545,0.0
0.0031103849223331993,261.6438572276707,-27.69687625217621,257.88277426252324,-30.17871745718479,204.9841285567581,-7.916272514595505,52.89864570576515,-22.262444942589283,36.375900860313955,13.948813971329344,221.50687340220924,-44.127531428514104,257.88277426252324,-30.17871745718479,3.761082965147455,2.4818412050085787,0.0,0.0,111.84644975063416,-40.328509849569016,66.78729387408492,-8.51074315100561,42.87312977749017,4.711721572060508,36.375900860313955,13.948813971329344,10,9.95740680776528e-16,1.4532358548143109e-15,2.220446049250313e-13,0.0,0.09612272727272742,1.0848136363636363,0.09612272727272742
0.006220769844666399,263.6595966006357,-27.668933584582202,258.78650494536254,-30.846412358394645,212.31699816089565,-10.987795247800022,46.46950678446689,-19.858617110594622,36.01873539346097,13.745959417736259,222.76776955190158,-44.5923717761309,258.78650494536254,-30.846412358394645,4.8730916552732,3.1774787738124424,0.0,0.0,112.78308839995307,-40.68743737553367,67.20324342899727,-8.560609427813347,42.78143772295125,4.655675027216091,36.01873539346097,13.745959417736259,10,1.2655645088155121e-15,2.16700998720224e-15,4.440892098500626e-13,0.0,0.08239090909090918,1.071081818181818,0.08239090909090918
0.009331154766999597,264.5905403127554,-27.928499730243182,258.46517224328306,-31.874573776796467,218.78292497753378,-14.656700996660774,39.68224726574928,-17.217872780135693,34.82202014316867,13.206737565286613,223.64315210011443,-45.08131134208308,258.46517224328306,-31.874573776796467,6.125368069472343,3.9460740465532833,0.0,0.0,113.6779286022896,-41.02849846431251,67.60752369826716,-8.6080344438864,42.35769979955765,4.5552215661158435,34.82202014316867,13.206737565286613,10,1.2717498218729887e-15,1.3678810206420267e-15,4.440892098500626e-13,0.0,0.06865909090909095,1.05735,0.06865909090909095
0.012441539689332797,270.04356354544865,-27.290691631075326,262.5277617983906,-32.07368204503986,230.0058310477276,-17.748030050983402,32.52193075066299,-14.325651994056457,34.75731622188789,12.96027999192615,227.7704455765027,-45.033962036966,262.5277617983906,-32.07368204503986,7.515801747058022,4.782990413964532,0.0,0.0,114.51734929795037,-41.3469297598742,68.00702409736454,-8.654574430001325,45.2460721811878,4.96754215290952,34.75731622188789,12.96027999192615,10,1.3267731449524026e-15,1.2833296673944792e-15,2.220446049250313e-13,0.0,0.054927272727272936,1.0436181818181818,0.054927272727272936
0.015551924611665997,272.28149506022254,-26.92638776453481,263.2395770340956,-32.609814601026315,238.25807556230396,-21.43945514010025,24.98150147179163,-11.170359460926065,34.835117398253935,12.886037379265815,228.40445963584168,-45.495851980292166,263.2395770340956,-32.609814601026315,9.041918026126929,5.683426836491508,0.0,0.0,115.30144882843565,-41.64330110771686,68.40749835478132,-8.702025347808526,44.69551245262467,4.84947447523324,34.835117398253935,12.886037379265815,10,1.0397495802207314e-15,1.6976852533564638e-15,2.220446049250313e-13,0.0,0.0411954545454547,1.0298863636363635,0.0411954545454547
0.018662309533999194,270.0887505003829,-27.430567639424794,259.3878654090743,-34.073003625886244,242.33494221402697,-26.333435412351847,17.052923195047356,-7.7395682135343975,33.14788904267533,12.16382767695873,226.239976366399,-46.23683130284496,259.3878654090743,-34.073003625886244,10.700885091308564,6.642435986461448,0.0,0.0,116.02763277763938,-41.91728407024339,68.8131411669475,-8.75221842517226,41.39920242181209,4.432671192570684,33.14788904267533,12.16382767695873,10,1.075755663042634e-15,1.8279771128730065e-15,4.440892098500626e-13,0.0,0.027463636363636468,1.0161545454545453,0.027463636363636468
0.021772694456332394,276.4231084574777,-26.167590373510098,263.93358619042544,-33.82253323051481,255.20525168510824,-29.80203133295663,8.728334505317207,-4.0205018975581766,34.316695595833835,12.365782003566888,229.6168905945916,-46.1883152340817,263.93358619042544,-33.82253323051481,12.489522267052264,7.654942857004709,0.0,0.0,116.69314708906995,-42.16858193337684,69.23151688088993,-8.807139160949411,43.692226624631736,4.787405860244551,34.316695595833835,12.365782003566888,10,1.2517027537261369e-15,1.4836790725947278e-15,4.440892098500626e-13,0.0,0.013731818181818234,1.0024227272727273,0.013731818181818234
0.024883079378665594,272.4943283873568,-29.23983599673096,269.7299712388974,-31.172715201748332,269.7299712388974,-31.172715201748332,0.0,0.0,38.87793157678862,15.31895191534457,230.85203966210884,-46.49166711709293,269.7299712388974,-31.172715201748332,2.7643571484593816,1.93287920501737,0.0,0.0,117.31953566109931,-42.402752844105734,69.65444175031216,-8.863246400527267,43.878062250697354,4.774332127540074,38.87793157678862,15.31895191534457,11,1.5893403821811018e-15,1.966348126877516e-15,2.220446049250313e-13,0.0,0.0,1.1300194991475307,0.0
0.027993464300998794,272.70678193765656,-28.144392484195457,268.9961265159749,-30.70980756548866,214.08645486286684,-7.602066725501103,54.909671653108035,-23.107740839987557,38.92804452645157,15.426362136788125,230.06808198952336,-46.13616970227683,268.9961265159749,-30.70980756548866,3.710655421681698,2.5654150812932044,0.0,0.0,116.3219456797459,-41.92539675678732,70.06250975899549,-8.91556370135961,43.68362655078195,4.704790755870114,38.92804452645157,15.426362136788125,10,1.6284004494670457e-15,1.799992333895586e-15,4.440892098500626e-13,0.0,0.09612272727272742,1.1162876809657125,0.09612272727272742
0.031103849223331995,278.1617703421246,-27.508269097567826,273.37215775685837,-30.782018289177785,225.13152874375788,-10.167160777205154,48.24062901310049,-20.61485751197263,39.52899636970583,15.420283335232696,233.84316138715255,-46.20230162441049,273.37215775685837,-30.782018289177785,4.7896125852662506,3.2737491916099586,0.0,0.0,117.31893950273783,-42.30741600705595,70.45961618689333,-8.964919733876677,46.06460569752136,5.070034116522152,39.52899636970583,15.420283335232696,10,1.0272932155774428e-15,1.325885530003799e-15,4.440892098500626e-13,0.0,0.08239090909090918,1.1025558627838943,0.08239090909090918
0.03421423414566519,280.1624548478774,-27.384498136073056,274.1643395124678,-31.437135721275638,232.97100106219196,-13.563984411307956,41.19333845027583,-17.87315130996768,39.33257435554394,15.26492024035101,234.8317651569238,-46.70205596162664,274.1643395124678,-31.437135721275638,5.998115335409643,4.052637585202583,0.0,0.0,118.26261329875638,-42.66697817802242,70.84884324131227,-9.012362279810798,45.72030861685515,4.977284496206586,39.33257435554394,15.26492024035101,10,1.3128143105224436e-15,1.524506739588844e-15,4.440892098500626e-13,0.0,0.06865909090909095,1.0888240446020763,0.06865909090909095
0.03732461906799839,280.7954793828147,-27.62392523514099,273.4627515612305,-32.52063911740501,239.70324368430806,-17.650038373636548,33.75950787692244,-14.870600743768463,38.0334101178011,14.699414292635488,235.4293414434294,-47.2200534100405,273.4627515612305,-32.52063911740501,7.332727821584195,4.89671388226402,0.0,0.0,119.15067577477872,-43.00371014822197,71.23323651511947,-9.059154978193895,45.04542915353117,4.84281171637538,38.0334101178011,14.699414292635488,10,1.1845117124043917e-15,1.5335039554234746e-15,4.440892098500626e-13,0.0,0.054927272727272936,1.075092226420258,0.054927272727272936
0.04043500399033159,283.24278077477015,-26.963364939553212,274.4530769320182,-32.76387468301509,248.5220022058808,-21.169001663267764,25.931074726137382,-11.594873019747325,39.435701269614526,14.978544552487328,235.01737566240368,-47.74241923550242,274.4530769320182,-32.76387468301509,8.789703842751974,5.800509743461876,0.0,0.0,119.98066990503989,-43.31727839087375,71.61564997498974,-9.106762748008002,43.421055782374054,4.681621903379348,39.435701269614526,14.978544552487328,10,2.3410068886600364e-15,1.3038579394020746e-15,8.881784197001252e-13,0.0,0.0411954545454547,1.0613604082384398,0.0411954545454547
0.04354538891266479,285.59378388130443,-26.922924666980766,275.2287838101783,-33.68140016614174,257.5286348366457,-25.648110196578102,17.700148973532578,-8.03328996956364,37.869607469934195,14.272916407927042,237.35917634024412,-47.9543165740688,275.2287838101783,-33.68140016614174,10.365000071126149,6.7584754991609755,0.0,0.0,120.74997286153369,-43.60737506031616,71.99863217779684,-9.156832264032346,44.610571300913584,4.80989075027971,37.869607469934195,14.272916407927042,10,1.1599659371250603e-15,2.3604439754442484e-15,4.440892098500626e-13,0.0,0.027463636363636468,1.0476285900566216,0.027463636363636468
0.04665577383499799,287.20992270189964,-26.784842195100047,275.1556324521176,-34.54984304527642,266.09664492779353,-30.377036890439427,9.058987524324039,-4.172806154836991,36.662977975122345,13.756892265377406,238.49265447699526,-48.306735310653856,275.1556324521176,-34.54984304527642,12.054290249782085,7.76500085017637,0.0,0.0,121.45582231244333,-43.873717409256216,72.39338066561423,-9.211220352495797,44.643451498937694,4.778202451098167,36.662977975122345,13.756892265377406,10,1.0865547365943037e-15,1.1740163268484082e-15,1.1102230246251565e-13,0.0,0.013731818181818234,1.0338967718748036,0.013731818181818234
0.04976615875733119,287.38301414112635,-28.911597815014026,284.6905194775644,-30.875910796805883,284.6905194775644,-30.875910796805883,0.0,0.0,43.299162647291205,17.43269847783968,241.3913568302732,-48.30860927464555,284.6905194775644,-30.875910796805883,2.692494663561947,1.9643129817918576,0.0,0.0,122.12021941902806,-44.12199433964985,72.79210866125639,-9.266220513139402,46.47902874998875,5.079605578143699,43.299162647291205,17.43269847783968,11,1.866437563181997e-15,1.7671398745169929e-15,8.881784197001252e-13,0.0,0.0,1.1603193072748463,0.0
0.052876543679664385,287.63599595961006,-27.783313678801086,284.0438450730261,-30.37552444066307,226.94087656029973,-6.3455590272319995,57.10296851272636,-24.02996541343107,43.43874835128391,17.572484996256588,240.60509672174223,-47.94800943691969,284.0438450730261,-30.37552444066307,3.5921508865839384,2.5922107618619843,0.0,0.0,121.13515062367088,-43.647675595321914,73.17334473161542,-9.316687282721489,46.29660136645591,5.0163534411237265,43.43874835128391,17.572484996256588,10,1.2989277481291176e-15,1.1810304614650716e-15,2.220446049250313e-13,0.0,0.09612272727272742,1.146587489093028,0.09612272727272742
0.05598692860199759,288.2569858021238,-28.199158881757825,283.64559592675016,-31.49032545664498,233.48709292021988,-10.056411974634145,50.15850300653028,-21.433913482010837,42.11451565341707,17.005526934106676,241.5310802733331,-48.495852390751665,283.64559592675016,-31.49032545664498,4.611389875373619,3.2911665748871584,0.0,0.0,122.17170131199958,-44.04451079196198,73.53951032997485,-9.36337449491441,45.81986863135864,4.912032896124746,42.11451565341707,17.005526934106676,10,1.7126606850839577e-15,1.840545025971206e-15,4.440892098500626e-13,0.0,0.08239090909090918,1.1328556709112099,0.08239090909090918
0.059097313524330786,288.66553687431195,-28.418486372141768,282.9195170018258,-32.473835691172695,240.0964810300955,-13.893897118871962,42.82303597173029,-18.579938572300733,41.97411286516171,16.713065869954765,240.94540413666414,-49.186901561127485,282.9195170018258,-32.473835691172695,5.746019872486162,4.0553493190309275,0.0,0.0,123.15199107686685,-44.41780837353843,73.8929710254931,-9.407254733777368,43.90044203430418,4.638161546188318,41.97411286516171,16.713065869954765,10,1.0925781066031658e-15,2.508283323025722e-15,4.440892098500626e-13,0.0,0.06865909090909095,1.1191238527293919,0.06865909090909095
0.06220769844666399,292.8247888035818,-27.771083940861864,285.83318618981315,-32.64996527486217,250.744863692929,-17.19420801080517,35.08832249688416,-15.455757264056999,42.33899396349943,16.74318047246693,243.4941922263137,-49.3931457473291,285.83318618981315,-32.64996527486217,6.991602613768622,4.8788813340003045,0.0,0.0,124.07337086541585,-44.76709709942073,74.23595705521151,-9.44950511375928,45.18486430568633,4.82345646585091,42.33899396349943,16.74318047246693,10,1.0830006060052474e-15,1.968443722092445e-15,2.220446049250313e-13,0.0,0.054927272727272936,1.1053920345475736,0.054927272727272936
0.06531808336899718,294.0997190345272,-27.88056534118476,285.7562489944889,-33.63642517680333,258.80988398599493,-21.587647505944943,26.946365008493956,-12.048777670858385,40.90380487522281,16.11502123113081,244.85244411926607,-49.75144640793414,285.7562489944889,-33.63642517680333,8.34347004003829,5.755859835618568,0.0,0.0,124.93297244224138,-45.09191879257815,74.57055094129454,-9.49149217581666,45.348920735730175,4.831964560460644,40.90380487522281,16.11502123113081,10,1.256545676107972e-15,1.5337807471763668e-15,2.220446049250313e-13,0.0,0.0411954545454547,1.0916602163657554,0.0411954545454547
0.06842846829133038,299.0956014564714,-26.94428350598636,289.29885981013064,-33.62466157519076,270.9094934069815,-25.27859028006374,18.389366403149154,-8.346071295127018,42.00899396927487,16.236887831839514,247.2898658408558,-49.86154940703028,289.29885981013064,-33.62466157519076,9.79674164634076,6.680378069204399,0.0,0.0,125.72772905923398,-45.39182164414225,74.89863182985478,-9.534754580802268,46.66350495176706,5.065026817914244,42.00899396927487,16.236887831839514,10,1.2187974681801126e-15,1.9704132569181964e-15,2.220446049250313e-13,0.0,0.027463636363636468,1.0779283981839374,0.027463636363636468
0.07153885321366359,300.49878173512593,-26.860986677360344,289.15243933700754,-34.50753277416568,279.7427242013367,-30.173175325706538,9.409715135670808,-4.334357448459144,40.80327344615867,15.696815524569601,248.34916589084892,-50.20434829873531,289.15243933700754,-34.50753277416568,11.34634239811842,7.646546096805339,0.0,0.0,126.45441675497608,-45.66636643006715,75.2287956102124,-9.581026660945149,46.66595352566041,5.043044792277001,40.80327344615867,15.696815524569601,10,1.4107864533509364e-15,1.752966152916072e-15,2.220446049250313e-13,0.0,0.013731818181818456,1.0641965800021191,0.013731818181818456
0.07464923813599678,296.2213731780315,-30.08196069614807,293.6416638911206,-32.03630344898674,293.6416638911204,-32.036303448986686,1.7053025658242404e-13,-5.684341886080802e-14,44.57997827178297,18.538386851505127,249.0616856193376,-50.57469030049188,293.6416638911206,-32.03630344898674,2.5797092869109677,1.954342752838672,0.0,0.0,127.13277320717123,-45.920650538948664,75.551456531154,-9.626862846935754,46.37745588101233,4.972823085392559,44.57997827178297,18.538386851505127,11,1.5477397916814217e-15,1.3261844260121344e-15,2.220446049250313e-13,0.0,2.220446049250313e-16,1.1883144509722035,2.220446049250313e-16
0.07775962305832998,298.0378745603788,-28.397621333635673,294.62428140895435,-30.956275108915776,235.2102225504589,-5.9542782431183525,59.41405885849545,-25.001996865797423,46.53388324975074,19.231423773675367,248.0903981592036,-50.187698882591135,294.62428140895435,-30.956275108915776,3.4135931514244495,2.5586537752801024,0.0,0.0,126.13754200425468,-45.443101663400626,75.84608141337573,-9.667527753959906,46.10677474157318,4.922930534769392,46.53388324975074,19.231423773675367,10,1.3139642615656339e-15,1.6958396277110621e-15,4.440892098500626e-13,0.0,0.09612272727272742,1.1745826327903852,0.09612272727272742
0.08087000798066318,297.036400444688,-29.075476163396644,292.68488817699995,-32.30212829608294,240.5147739194958,-10.00894408986764,52.17011425750414,-22.2931842062153,45.15259648554419,18.618656765101647,247.53229169145578,-50.9207850611846,292.68488817699995,-32.30212829608294,4.351512267688089,3.226652132686299,0.0,0.0,127.17086112770085,-45.84104415184048,76.11498532922987,-9.70381124163989,44.24644523452512,4.624070332295734,45.15259648554419,18.618656765101647,10,1.976246138697642e-15,1.9457544862538823e-15,4.440892098500626e-13,0.0,0.08239090909090918,1.160850814608567,0.08239090909090918
0.08398039290299639,298.5655407006937,-29.385631974964408,293.1769530635818,-33.337841246784436,248.6529164610812,-14.020079734690185,44.52403660250059,-19.31776151209425,43.44183750127333,17.8288039189889,249.73511556230847,-51.16664516577333,293.1769530635818,-33.337841246784436,5.388587637111924,3.9522092718200286,0.0,0.0,128.13558468130714,-46.2115665121792,76.36039258443093,-9.736732773517048,45.239138296570374,4.781654119922926,43.44183750127333,17.8288039189889,10,1.2194515508778326e-15,1.625467424924124e-15,4.440892098500626e-13,0.0,0.06865909090909095,1.1471189964267487,0.06865909090909095
0.08709077782532958,301.09753887882266,-28.980250496633623,294.5777528901209,-33.70948348731075,258.10963271112723,-17.646057372553088,36.46812017899367,-16.06342611475766,43.67311512167832,17.828088326191885,250.90463776844254,-51.53757181350261,294.5777528901209,-33.70948348731075,6.519785988701756,4.729232990677126,0.0,0.0,129.02810274300825,-46.55385157096619,76.58441312856783,-9.767524779016178,45.292121896866476,4.783804536479753,43.67311512167832,17.828088326191885,10,1.3927646144493847e-15,2.0426889223482664e-15,2.220446049250313e-13,0.0,0.054927272727272936,1.1333871782449307,0.054927272727272936
0.09020116274766278,304.188134178195,-28.600533064295405,296.4481957002159,-34.15222064810189,268.45328644638977,-21.634643493014963,27.99490925382611,-12.517577155086926,43.64151076495303,17.561173729643023,252.8066849352628,-51.713394377744876,296.4481957002159,-34.15222064810189,7.739938477979162,5.551687583806484,0.0,0.0,129.84454610317817,-46.86706447296761,76.78901450307866,-9.797616505777256,46.17312432900597,4.951286600999989,43.64151076495303,17.561173729643023,10,1.062663190933495e-15,1.8457377502060516e-15,8.881784197001252e-13,0.0,0.0411954545454547,1.1196553600631125,0.0411954545454547
0.09331154766999598,304.30178100207684,-28.967697013175858,295.2580214278629,-35.381310300676816,276.1608678972252,-26.71402131420824,19.097153530637684,-8.667288986468577,41.63555126727656,16.676860602004933,253.62247016058637,-52.058170902681795,295.2580214278629,-35.381310300676816,9.04375957421391,6.413613287500956,0.0,0.0,130.58081216054998,-47.150349044559384,76.97600914640253,-9.828619848367069,46.06564885363388,4.920797990244651,41.63555126727656,16.676860602004933,10,1.0409030285103473e-15,1.535308574721284e-15,2.220446049250313e-13,0.0,0.027463636363636468,1.1059235418812943,0.027463636363636468
0.09642193259232917,306.8933460985576,-28.31706284265485,296.4674800353827,-35.626207799458285,286.69968250080103,-31.126910073086037,9.767797534581689,-4.499297726372248,42.29450605539862,16.77834406359752,254.17297397998408,-52.4045518630558,296.4674800353827,-35.626207799458285,10.425866063174864,7.309144956803435,0.0,0.0,131.23260654384723,-47.40283631292028,77.15914837696495,-9.862386474756448,45.781219059171924,4.860670924620912,42.29450605539862,16.77834406359752,10,1.273562354839598e-15,1.829831758764998e-15,2.220446049250313e-13,0.0,0.013731818181818456,1.092191723699476,0.013731818181818456
0.09953231751466238,300.6989721251103,-31.769356603205267,298.26636825059006,-33.672294084223196,298.26636825058995,-33.67229408422314,1.1368683772161603e-13,-5.684341886080802e-14,45.17128598653115,19.320527939403906,253.09508226405887,-52.992822023627085,298.26636825059006,-33.672294084223196,2.432603874520205,1.9029374810179283,0.0,0.0,131.8224797977231,-47.63010609702928,77.33120061005276,-9.894778389085879,43.94140185628305,4.53206246248806,45.061059508673694,19.23860727399944,11,1.0322594140316088e-15,2.0965070454872817e-15,4.440892098500626e-13,0.0,2.220446049250313e-16,1.212960484911357,2.220446049250313e-16
0.10264270243699558,300.52454072378345,-31.070602464854197,297.33771991847385,-33.53743686596738,235.4861082252856,-7.507530394557847,61.85161169318826,-26.029906471409532,44.218374189742114,18.872408045220784,253.11934572873173,-52.40984491118816,297.33771991847385,-33.53743686596738,3.1868208053095994,2.466834401113182,0.0,0.0,130.85772096257722,-47.1774515653143,77.46757214457125,-9.920136163634883,44.79405262158325,4.687742817761027,44.218374189742114,18.872408045220784,10,1.1440563608460917e-15,2.4549110737328276e-15,4.440892098500626e-13,0.0,0.09612272727272742,1.1992286667295389,0.09612272727272742
0.10575308735932877,304.77494371926554,-30.128647166329905,300.74647941939565,-33.21391427227458,246.4874707427756,-10.026671648481809,54.259008676620056,-23.18724262379277,46.2816235989544,19.48951397560948,254.46485582044124,-52.70342824788406,300.74647941939565,-33.21391427227458,4.028464299869863,3.0852671059446717,0.0,0.0,131.75027582965646,-47.52621722783528,77.57040849506771,-9.93919998131775,45.1441714957171,4.761988961268948,46.2816235989544,19.48951397560948,10,1.1860981107173004e-15,1.7936064312215363e-15,4.440892098500626e-13,0.0,0.08239090909090918,1.1854968485477209,0.08239090909090918
0.10886347228166197,304.9692308102204,-30.577050132460236,300.01683903583177,-34.32919283845857,253.75482827196694,-14.25649233846488,46.26201076386482,-20.072700499993687,44.6153575413369,18.69340036299628,255.40148149449487,-53.02259320145484,300.01683903583177,-34.32919283845857,4.952391774388642,3.7521427059983306,0.0,0.0,132.56824782332177,-47.84465336239917,77.64168614174474,-9.9529096400328,45.191547529428384,4.774969800977107,44.6153575413369,18.69340036299628,10,1.5203809394059717e-15,1.827690129417367e-15,4.440892098500626e-13,0.0,0.06865909090909095,1.1717650303659026,0.06865909090909095
0.11197385720399518,306.6000868819337,-30.28412782316982,300.6466862836865,-34.74561103766081,262.792334396206,-18.071102686334584,37.854351887480505,-16.674508351326224,44.51905235569,18.581877560366003,256.1276339279965,-53.327488598026804,300.6466862836865,-34.74561103766081,5.953400598247199,4.46148321449099,0.0,0.0,133.30881904934603,-48.13224557126482,77.68320429945146,-9.962389728101066,45.13561057919904,4.767146701339069,44.51905235569,18.581877560366003,10,1.7526868194774647e-15,1.383867181148235e-15,8.881784197001252e-13,0.0,0.054927272727272936,1.1580332121840844,0.054927272727272936
0.11508424212632837,308.8566036183345,-30.057961379835028,301.83035741833396,-35.26540364902954,272.8003418179611,-22.284778070614735,29.03001560037285,-12.980625578414802,44.448821899683935,18.20823546811387,257.38153551865,-53.47363911714342,301.83035741833396,-35.26540364902954,7.026246200000503,5.207442269194511,0.0,0.0,133.96898478410958,-48.388497163089816,77.6965927811638,-9.96893948560757,45.71595795337666,4.8837975315539595,44.448821899683935,18.20823546811387,10,1.6336540022163129e-15,1.1734158964468447e-15,1.1102230246251565e-13,0.0,0.0411954545454547,1.1443013940022664,0.0411954545454547
0.11819462704866157,308.78805970594806,-30.271957783026195,300.622399758374,-36.2562786205292,280.83920028407,-27.277558812615027,19.783199474304013,-8.978719807914175,42.77201227094817,17.46657102567264,257.85038748742585,-53.72284964620185,300.622399758374,-36.2562786205292,8.165659947574044,5.984320837503005,0.0,0.0,134.5455561277689,-48.61292442447224,77.68333681804484,-9.974027734381032,45.62149454161208,4.864102512651442,42.77201227094817,17.46657102567264,10,1.3340431727153388e-15,1.4155150624009274e-15,4.440892098500626e-13,0.0,0.027463636363636468,1.1305695758204481,0.027463636363636468
0.12130501197099477,309.8683100812543,-30.026606609979922,300.50194333974594,-36.81318847425817,290.39363103433897,-32.15703197429818,10.108312305406969,-4.656156499959991,42.4474224079299,17.157910022388744,258.05452093181606,-53.971098496646945,300.50194333974594,-36.81318847425817,9.366366741508392,6.786581864278246,0.0,0.0,135.03517416365,-48.80506197481914,77.65930243834273,-9.97937392179108,45.36004432982332,4.813337399963292,42.4474224079299,17.157910022388744,10,1.6640604668142316e-15,1.4997550801654348e-15,4.440892098500626e-13,0.0,0.013731818181818234,1.11683775763863,0.013731818181818234
0.12441539689332798,306.32794559922405,-32.467202673645595,304.0683754807734,-34.2809018771122,304.0683754807734,-34.2809018771122,0.0,0.0,46.05745591985936,19.934636066184172,258.0109195609141,-54.2155379432964,304.0683754807734,-34.2809018771122,2.2595701184506343,1.8136992034666037,0.0,0.0,135.4557528401684,-48.969591117716206,77.6250401797881,-9.98209011133103,44.93012654095756,4.73614328575086,45.4390695147842,19.46903210274326,11,1.154643124439628e-15,2.1591113866804365e-15,4.440892098500626e-13,0.0,0.0,1.233337912650861,0.0
0.12752578181566118,301.86091074212686,-32.30376424959868,298.93472801083465,-34.62801212606428,235.56093524610313,-7.957301355591497,63.37379276473152,-26.67071077047278,44.104564145339616,19.222033031431323,254.830163865495,-53.850045157495586,298.93472801083465,-34.62801212606428,2.926182731292188,2.324247876465599,0.0,0.0,134.00817318942455,-48.31965511668849,77.56215119500862,-9.978161306754824,43.25983948106181,4.447771265947722,43.772611616446675,18.974240807261797,10,1.4637852441091413e-15,1.5609690992081903e-15,4.440892098500626e-13,0.0,0.09612272727272742,1.2196060944690428,0.09612272727272742
0.13063616673799436,306.1289558447212,-31.288068368963202,302.46505878131273,-34.16749629263251,246.91566140158008,-10.428685106739664,55.54939737973265,-23.738811185892843,46.23374663734779,19.83845528063079,256.23131214396494,-54.005951573263275,302.46505878131273,-34.16749629263251,3.663897063408448,2.879427923669306,0.0,0.0,134.77414176595406,-48.62727193125466,77.47349771931569,-9.96869980183802,43.98367265869519,4.59002015982939,46.23374663734779,19.83845528063079,10,1.1635376508170412e-15,1.364931031856068e-15,2.220446049250313e-13,0.0,0.08239090909090918,1.2058742762872248,0.08239090909090918
0.13374655166032756,306.25749050042725,-31.608453924912403,301.78979148874333,-35.0819573797623,254.46515925539308,-14.548115756731448,47.32463223335026,-20.533841623030852,44.97280216946049,19.164380618465202,256.81698931928287,-54.24633799822752,301.78979148874333,-35.0819573797623,4.467699011683924,3.473503454849898,0.0,0.0,135.446868582021,-48.89918946871806,77.36182203780818,-9.95501988328116,44.00829869945365,4.607871353771728,44.97280216946049,19.164380618465202,10,1.6257223446802174e-15,1.080609792338937e-15,4.440892098500626e-13,0.0,0.06865909090909095,1.1921424581054065,0.06865909090909095
0.13685693658266077,305.8067631291289,-32.02737102949637,300.4741652966685,-36.1282879284189,261.7804444903742,-19.08400101808354,38.69372080629432,-17.04428691033536,43.2779101605379,18.335876603897365,257.19625513613056,-54.464164532316246,300.4741652966685,-36.1282879284189,5.332597832460383,4.100916898922527,0.0,0.0,136.0222962629939,-49.13434191602311,77.22974118947843,-9.938625641323021,43.94421768365826,4.6088030250298715,43.2779101605379,18.335876603897365,10,1.508983066785622e-15,1.7753077175220913e-15,2.220446049250313e-13,0.0,0.054927272727272936,1.1784106399235883,0.054927272727272936
0.13996732150499397,306.5567057729603,-31.82394979073852,300.3030642195537,-36.58025055112873,270.6519793455348,-23.32189599310894,29.651084874018864,-13.25835455801979,42.903554517006754,18.0756655330898,257.399509702547,-54.65591608421853,300.3030642195537,-36.58025055112873,6.253641553406617,4.756300760390208,0.0,0.0,136.49620788714458,-49.33166160986664,77.07976420588494,-9.92120540759754,43.82353760951746,4.5969509332456475,42.903554517006754,18.0756655330898,10,1.2538363893611752e-15,2.6293020711298184e-15,2.220446049250313e-13,0.0,0.0411954545454547,1.16467882174177,0.0411954545454547
0.14307770642732717,308.25353356481475,-31.402508884103245,301.02760170900893,-36.83699708735638,280.83626600852637,-27.673035071121205,20.19133570048257,-9.163962016235175,43.155115527425686,17.895515815460897,257.8724861815832,-54.73251290281726,301.02760170900893,-36.83699708735638,7.2259318558058325,5.434488203253134,0.0,0.0,136.8642421880159,-49.49008558234436,76.91432969886586,-9.90463315017984,44.093914294701406,4.662205829706945,43.155115527425686,17.895515815460897,10,2.24612217020766e-15,1.7581004516913346e-15,2.220446049250313e-13,0.0,0.027463636363636468,1.150947003559952,0.027463636363636468
0.14618809134966038,307.1060418788207,-31.836169116600253,298.86140349190003,-37.96669157069759,288.5521145471103,-33.217958840604226,10.309288944789728,-4.748732730093366,41.044066493364966,16.89214216919188,257.81733699853504,-54.85883373988945,298.86140349190003,-37.96669157069759,8.24463838692065,6.13052245409734,0.0,0.0,137.12190397899843,-49.608566462401214,76.75173120824584,-9.891065022362056,43.94370181129082,4.640797744873794,41.044066493364966,16.89214216919188,10,1.7510539517501721e-15,1.238648101632787e-15,4.440892098500626e-13,0.0,0.013731818181818234,1.1372151853781338,0.013731818181818234
0.14929847627199355,305.0813884179771,-33.39504774504668,303.0113444087547,-35.08845590963975,303.0113444087546,-35.08845590963969,1.1368683772161603e-13,-5.684341886080802e-14,45.463179145945794,19.882981222387603,257.54816526280894,-54.97143713202733,303.0113444087547,-35.08845590963975,2.070044009222378,1.6934081645930685,0.0,0.0,137.29305621423217,-49.69288805696155,76.58865018511301,-9.87642774818844,43.66645886346372,4.597878673122661,44.475902717644004,19.13275354094436,11,1.2736432577920469e-15,1.5376238660420003e-15,2.220446049250313e-13,0.0,2.220446049250313e-16,1.2486864912916522,2.220446049250313e-16
0.15240886119432676,300.26309883765276,-33.461146045942286,297.6160532353484,-35.60380744902794,232.74151740127775,-8.295552853143747,64.87453583407063,-27.308254595884193,43.000490776574075,19.002829567670044,254.61556245877432,-54.606637016698,297.6160532353484,-35.60380744902794,2.6470456023044155,2.1426614030856515,0.0,0.0,135.92179227127622,-49.10406165440274,76.40049713337638,-9.855185117762382,42.29327305412167,4.352609755467142,42.242532375296676,18.43147256205244,10,1.1643098833202994e-15,1.896113626590449e-15,2.220446049250313e-13,0.0,0.09612272727272742,1.234954673109834,0.09612272727272742
0.15551924611665996,300.6514620858379,-33.61356096487833,297.3712579338776,-36.24044942648568,240.60127354594903,-11.976133168898428,56.76998438792856,-24.264316257587254,42.27191283938961,18.448117124752734,255.09934509448794,-54.68856655123838,297.3712579338776,-36.24044942648568,3.2802041519603353,2.6268884616073516,0.0,0.0,136.3303560779489,-49.28447947663609,76.19122422917914,-9.828615809384377,42.57776478735992,4.424528734782076,41.892655674544564,18.164715101057944,10,1.2975342489636746e-15,1.83675881692525e-15,2.220446049250313e-13,0.0,0.08239090909090918,1.2212228549280157,0.08239090909090918
0.15862963103899316,302.857416653994,-32.76775902270993,298.89247200615375,-35.90872790220551,250.607660600868,-14.955932058763167,48.28481140528575,-20.952795843442345,43.82443863952193,18.894940313155274,255.06803336663174,-54.80366821536076,298.89247200615375,-35.90872790220551,3.9649446478402517,3.140968879495583,0.0,0.0,136.64727279439168,-49.42852218539633,75.96466683289441,-9.798216228077447,42.45609373934565,4.423070198113031,43.82443863952193,18.894940313155274,10,1.3305733629348965e-15,1.0551935039698016e-15,1.1102230246251565e-13,0.0,0.06865909090909095,1.2074910367461975,0.06865909090909095
0.16174001596132637,302.06571079626434,-33.037712271362004,297.3689316891366,-36.71771359413441,257.95430821774596,-19.354629370461026,39.414623471390655,-17.363084223673383,42.473066595209374,18.166076692807444,254.8958650939273,-54.88379028694189,297.3689316891366,-36.71771359413441,4.696779107127741,3.680001322772405,0.0,0.0,136.8690778692759,-49.53547084964758,75.72454770753802,-9.765691841069838,42.30223951711336,4.417372403775541,42.473066595209374,18.166076692807444,10,1.255405963145756e-15,1.6455371288589204e-15,1.1102230246251565e-13,0.0,0.054927272727272936,1.1937592185643793,0.054927272727272936
0.16485040088365957,300.8569811636588,-33.37686389521506,295.3856631456457,-37.61617363768022,265.23053907591805,-24.131893086085213,30.155124069727663,-13.484280551595006,40.779709898592564,17.311641635972528,254.60595324705312,-54.92781527365274,295.3856631456457,-37.61617363768022,5.471318018013099,4.23930974246516,0.0,0.0,136.9920743114646,-49.604586330201535,75.47450686013113,-9.732956640089768,42.13937207545741,4.409727696638559,40.779709898592564,17.311641635972528,10,1.5691146628517059e-15,1.5312154200281729e-15,4.440892098500626e-13,0.0,0.0411954545454547,1.1800274003825613,0.0411954545454547
0.16796078580599277,301.0237951735577,-32.979374931369826,294.7395140752164,-37.79382331489269,274.2373727550389,-28.48863122161349,20.502141320177486,-9.305192093279203,40.56189510573842,17.148554376097266,254.17761896947792,-54.94237769098996,294.7395140752164,-37.79382331489269,6.28428109834129,4.814448383522863,0.0,0.0,137.01236125179085,-49.63512444347294,75.21815331414953,-9.702139972646641,41.94710440353753,4.3948867251296235,40.56189510573842,17.148554376097266,10,1.4567031619949995e-15,2.10529118270493e-15,8.881784197001252e-13,0.0,0.027463636363636468,1.166295582200743,0.027463636363636468
0.17107117072832595,301.416854877083,-32.69615643969051,294.28534752419114,-38.09736210516955,283.8336666732559,-33.283017808750174,10.451680850935247,-4.814344296419378,40.40812104846835,16.777517853017564,253.87722647572278,-54.87487995818714,294.28534752419114,-38.09736210516955,7.131507352891857,5.401205665479043,0.0,0.0,136.9258585341445,-49.62635589347765,74.95914159126522,-9.675601568617488,41.99222635031302,4.427077503908002,40.40812104846835,16.777517853017564,10,2.108308334093632e-15,1.4935184316793253e-15,2.220446049250313e-13,0.0,0.013731818181818456,1.1525637640189248,0.013731818181818456
0.17418155565065915,297.6120190123768,-34.59471564245742,295.7383102059236,-36.14582662597549,295.7383102059235,-36.14582662597543,1.1368683772161603e-13,-5.684341886080802e-14,42.48705671609957,18.678064791296062,253.25125348982405,-54.82389141727157,295.7383102059236,-36.14582662597549,1.8737088064531666,1.551110983518065,0.0,0.0,136.75913759030638,-49.58494608590997,74.67046179874619,-9.64859833200051,41.82165410077149,4.409653000638897,41.316243335587146,17.78337804105625,11,1.6754481620611843e-15,1.957638643805169e-15,4.440892098500626e-13,0.0,2.220446049250313e-16,1.2584335946872145,2.220446049250313e-16
0.17729194057299236,295.47129043792864,-33.29414736433159,293.106951063059,-35.23051668259593,228.56198817999382,-8.058067753818733,64.54496288306518,-27.1724489287772,42.57954191397357,18.685339448265765,250.52740914908549,-53.91585613086172,293.106951063059,-35.23051668259593,2.364339374869641,1.9363693182643384,0.0,0.0,134.61013586970535,-48.67730696158883,74.32999648307313,-9.614656499148165,41.587276796306995,4.376107329875275,41.609597563795454,17.949799188138893,10,9.855564748116877e-16,1.2397645448734366e-15,2.220446049250313e-13,0.0,0.09612272727272742,1.2447017765053963,0.09612272727272742
0.18040232549532556,293.7941496304375,-33.82459316452018,290.8958516167547,-36.17257805358483,234.46493587026094,-12.051247714746466,56.43091574649378,-24.121330338838362,40.86124605759907,17.860512081999705,250.0346055591556,-54.033090135584494,290.8958516167547,-36.17257805358483,2.8982980136827754,2.3479848890646497,0.0,0.0,134.81020300271632,-48.783807075013264,73.97362375342382,-9.574960166274039,41.25077880301545,4.3256771057028125,40.235254484051765,17.389807729719166,10,1.033909215873247e-15,1.7902425731450105e-15,1.1102230246251565e-13,0.0,0.08239090909090918,1.2309699583235783,0.08239090909090918
0.18351271041765876,291.34829519580154,-34.220941388842704,287.87664426896123,-37.002555951768954,239.9225776203592,-16.19210287470584,47.95406664860204,-20.810453077063116,39.21467919801377,17.2500168512885,248.66196507094745,-54.252572803057454,287.87664426896123,-37.002555951768954,3.4716509268403035,2.7816145629262476,0.0,0.0,134.91792363353036,-48.85326642800476,73.60932674979803,-9.531111581211583,40.13471468761905,4.131805206158891,38.96696102522268,17.06538939563402,10,1.0052144175830803e-15,1.9204399630079922e-15,1.1102230246251565e-13,0.0,0.06865909090909095,1.21723814014176,0.06865909090909095
0.18662309533999197,292.52477226991004,-33.68602568869908,288.44418082018825,-36.91917566720241,249.3335500446451,-19.689369033328063,39.11063077554314,-17.229806633874347,40.03442011561702,17.277783400217178,248.4097607045712,-54.19695906741956,288.44418082018825,-36.91917566720241,4.080591449721817,3.2331499785033295,0.0,0.0,134.9300367241596,-48.88504559969168,73.24259295822613,-9.484945944018872,40.23713102218551,4.173032476290974,40.03442011561702,17.277783400217178,10,1.1168099207680075e-15,2.317949935317648e-15,2.220446049250313e-13,0.0,0.054927272727272936,1.2035063219599418,0.054927272727272936
0.18973348026232514,291.2241119516014,-33.88230732775509,286.5026647788724,-37.581025767274284,256.60574509468677,-24.211920047791324,29.896919684185605,-13.36910571948296,38.77017504641018,16.58082601223013,247.73248973246223,-54.16185177950444,286.5026647788724,-37.581025767274284,4.721447172729004,3.69871843951919,0.0,0.0,134.8430685067426,-48.87849762444689,72.87889014735353,-9.438537628642521,40.01053107836609,4.1551834735849695,38.77017504641018,16.58082601223013,10,1.5006253656401073e-15,1.1495178798072389e-15,1.1102230246251565e-13,0.0,0.0411954545454547,1.1897745037781235,0.0411954545454547
0.19284386518465835,290.7276935998857,-33.58723067255356,285.337007229222,-37.76191350669808,265.0276113055712,-28.544112315121012,20.30939592365081,-9.217801191577067,38.404282203573636,16.331102570313114,246.93272502564838,-54.093016077011185,285.337007229222,-37.76191350669808,5.390686370663664,4.174682834144523,0.0,0.0,134.65335600795086,-48.832986447323826,72.52375088958841,-9.394215923089263,39.75561812810912,4.134186293401896,38.404282203573636,16.331102570313114,10,1.650380300384084e-15,1.0755483238429854e-15,4.440892098500626e-13,0.0,0.027463636363636468,1.1760426855963055,0.027463636363636468
0.19595425010699155,289.0762953592644,-33.74492291615415,282.9913716169772,-38.40256353823126,272.64662104490503,-33.63746255329707,10.344750572072144,-4.765100984934193,36.963182167940445,15.588558403102475,246.02818944903677,-53.99112194133375,282.9913716169772,-38.40256353823126,6.084923742287231,4.657640622077112,0.0,0.0,134.3570667438834,-48.747909321072854,72.18287509782836,-9.35458920284427,39.48824760732502,4.111376582583375,36.963182167940445,15.588558403102475,10,1.5038228493666507e-15,1.952107599446994e-15,1.1102230246251565e-13,0.0,0.013731818181818456,1.1623108674144873,0.013731818181818456
0.19906463502932475,286.48261959979436,-35.06275667175424,284.8028771289032,-36.459688832036505,284.8028771289032,-36.459688832036505,0.0,0.0,39.63778153634177,17.369145402080786,245.16509559256147,-53.828834234117295,284.8028771289032,-36.459688832036505,1.6797424708911164,1.3969321602822673,0.0,0.0,133.9840725507044,-48.630806047366676,71.82839018590799,-9.314493031632939,39.352632855949054,4.116464844882309,38.47314464229469,16.477322765552397,11,1.418358108922591e-15,2.0000247029772424e-15,4.440892098500626e-13,0.0,0.0,1.2622155770311378,0.0
0.20217501995165796,283.9968689323864,-33.520720305833144,281.9055284913422,-35.24094040603603,218.65774301488716,-8.61242984901314,63.24778547645502,-26.628510557022892,39.921739369752544,17.501002433394802,241.98378912158964,-52.741942839430855,281.9055284913422,-35.24094040603603,2.0913404410441987,1.7202201002028905,0.0,0.0,131.4552449024291,-47.57036746552162,71.4259812172562,-9.266823682887626,39.10256300190436,4.09524830897838,38.945754457391914,16.75921512653389,10,1.8354893195433027e-15,2.5053183268903365e-15,8.881784197001252e-13,0.0,0.09612272727272742,1.2484837588493196,0.09612272727272742
0.20528540487399116,282.3290119071561,-33.909625026679954,279.79310965975986,-35.9724003295141,224.53450721018092,-12.350743479253396,55.258602449578945,-23.621656850260706,38.49366233957143,16.79857940491369,241.29944732018845,-52.7709797344278,279.79310965975986,-35.9724003295141,2.5359022473962134,2.0627753028341442,0.0,0.0,131.5065547633951,-47.62251785444121,70.97538372150083,-9.212428743928463,38.8175088352925,4.063966863941893,37.82761145946481,16.296565216531093,10,1.718892057343408e-15,2.2585807165287083e-15,2.220446049250313e-13,0.0,0.08239090909090918,1.2347519406675014,0.08239090909090918
0.20839578979632437,280.2982275876173,-34.36027322930004,277.28800112807266,-36.78136129766705,230.36177651322683,-16.4160820248146,46.926224614845836,-20.365279272852447,36.845518176951515,15.989336349425166,240.44248295112115,-52.77069764709221,277.28800112807266,-36.78136129766705,3.010226459544632,2.421088068367004,0.0,0.0,131.47197095872406,-47.639293518201434,70.48082333498009,-9.15229528895663,38.48968865741699,4.020891160065862,36.521682316337525,15.747380242876144,10,2.0213448559477838e-15,2.0492110557560394e-15,1.6653345369377348e-13,0.0,0.06865909090909095,1.2210201224856831,0.06865909090909095
0.21150617471865754,277.576969385664,-34.67531617882469,274.06571303386903,-37.467192540448195,235.81857541951248,-20.617314833487015,38.24713761435655,-16.84987770696118,35.19456402838657,15.37998207486163,238.8711490054825,-52.847174615309854,274.06571303386903,-37.467192540448195,3.5112563517949273,2.791876361623508,0.0,0.0,131.34862697708218,-47.620214267403384,69.97551682523276,-9.0878378615636,37.54700520316758,3.860877513657126,35.19456402838657,15.37998207486163,10,1.047749515509111e-15,1.9909000531164112e-15,4.440892098500626e-13,0.0,0.054927272727272936,1.2072883043038651,0.054927272727272936
0.21461655964099075,277.96553714703884,-34.183184806630095,273.92945400696743,-37.355267341243675,244.71149060183348,-24.289560367778265,29.217963405133958,-13.06570697346541,35.80726458474436,15.348637925046358,238.12218942222307,-52.70390526629003,273.92945400696743,-37.355267341243675,4.036083140071428,3.1720825346135784,0.0,0.0,131.13353278071975,-47.564828963127006,69.47150984513985,-9.020945497695301,37.517146796363484,3.881869194532282,35.80726458474436,15.348637925046358,10,1.9858263445445394e-15,1.6179006800351516e-15,4.440892098500626e-13,0.0,0.0411954545454547,1.193556486122047,0.0411954545454547
0.21772694456332395,276.1593182760674,-34.368036257885414,271.5773696498582,-37.926905600886315,251.74182838059568,-28.92410538879777,19.835541269262535,-9.002800212088545,34.559278649877974,14.646403530786849,237.01809099998025,-52.57330913167317,271.5773696498582,-37.926905600886315,4.5819486262091935,3.5588693430008984,0.0,0.0,130.82363481210098,-47.47274956332634,68.97523007456647,-8.953769455126999,37.2192261133128,3.8532098867801707,34.559278649877974,14.646403530786849,10,1.3862829929406849e-15,1.909989732117573e-15,1.1102230246251565e-13,0.0,0.027463636363636468,1.1798246679402287,0.027463636363636468
0.22083732948565715,275.2626901332679,-33.99917036305778,270.1164428649871,-37.94878567006573,260.01941684825147,-33.29778512230082,10.09702601673564,-4.651000547764909,34.30089558593821,14.459187784205817,235.8155472790489,-52.40797345427154,270.1164428649871,-37.94878567006573,5.146247268280763,3.9496153070079525,0.0,0.0,130.41586637933804,-47.34368736877699,68.493165844911,-8.888731625679991,36.90651505479986,3.824445540185426,34.30089558593821,14.459187784205817,10,1.5019852708229307e-15,1.1110751877694987e-15,4.440892098500626e-13,0.0,0.013731818181818234,1.1660928497584104,0.013731818181818234
0.22394771440799036,271.6239521512043,-35.2861896196866,270.1277549968408,-36.527027170344766,270.1277549968408,-36.527027170344766,0.0,0.0,35.59423485676798,15.681884565215785,234.53352014007288,-52.208911735560584,270.1277549968408,-36.527027170344766,1.4961971543635013,1.2408375506581653,0.0,0.0,129.9071870357629,-47.17749008299076,68.03197426903684,-8.828548855473649,36.5943588352731,3.7971272029038374,34.59391694320975,14.916939306397172,11,1.4942273917805783e-15,1.8081284518475674e-15,1.1102230246251565e-13,0.0,0.0,1.2598913397874285,0.0
0.22705809933032356,268.2415593476357,-33.998076773221335,266.40272733011966,-35.50588965194359,205.27312316419238,-9.769345492300545,61.129604165927276,-25.736544159643046,35.49028112579066,15.437374318145181,230.91244620432894,-50.943263970088736,266.40272733011966,-35.50588965194359,1.8388320175160218,1.5078128787222531,0.0,0.0,126.95241800423248,-45.95434315141945,67.59860324690025,-8.776264929331877,36.36142495319621,3.787344110662584,34.672769537548206,14.816924667359228,10,1.1660063704611107e-15,9.636714778762698e-16,5.551115123125783e-14,0.0,0.09612272727272742,1.2461595216056103,0.09612272727272742
0.23016848425265674,267.866910670661,-33.682755806236756,265.66036917811743,-35.47141203590472,212.26731189492938,-12.647338476527892,53.39305728318806,-22.824073559376828,35.60000792667654,15.446605809868412,230.0603612514408,-50.91801784577309,265.66036917811743,-35.47141203590472,2.20654149254359,1.7886562296679676,0.0,0.0,126.80847049328152,-45.95226186631609,67.17892383472244,-8.73018442779658,36.07296692343687,3.764428448339576,35.06039224129454,15.040484411065844,10,1.0875145322822712e-15,1.5431925567160413e-15,8.881784197001252e-13,0.0,0.08239090909090918,1.2324277034237923,0.08239090909090918
0.23327886917498994,265.9796268751699,-33.97727991276879,263.3827726771644,-36.05793521880314,218.0525882462268,-16.38537840401851,45.33018443093758,-19.672556814784627,34.31635011189835,14.799162588007693,229.06642256526607,-50.85709780681086,263.3827726771644,-36.05793521880314,2.596854198005548,2.0806553060343482,0.0,0.0,126.58785117514944,-45.91544175289849,66.71227542263497,-8.677230322682007,35.766295967481625,3.7355742687696463,34.08078790353511,14.623427310667784,10,1.5152424866516883e-15,2.703702547201961e-15,4.440892098500626e-13,0.0,0.06865909090909095,1.218695885241974,0.06865909090909095
0.23638925409732314,263.8622568490206,-34.265587193293754,260.85481379618216,-36.64688880614513,223.91742803608898,-20.37406003186564,36.93738576009318,-16.27282877427949,32.9301831481516,14.116049585192934,227.92463064803056,-50.76293839133806,260.85481379618216,-36.64688880614513,3.0074430528384504,2.381301612851374,0.0,0.0,126.29310025320561,-45.844717021947886,66.19378881475843,-8.617108090020473,35.43774158006653,3.6988867206302842,32.9301831481516,14.116049585192934,10,1.253327697583071e-15,1.2585596838444933e-15,5.551115123125783e-14,0.0,0.054927272727272936,1.2049640670601558,0.054927272727272936
0.23949963901965635,262.253521381903,-34.19987710865394,258.81739582402383,-36.888161601132126,230.60623933625035,-24.27269429397313,28.21115648777348,-12.615467307158994,32.18502781179256,13.749296725611694,226.63236801223132,-50.63745832674385,258.81739582402383,-36.888161601132126,3.4361255578791408,2.6882844924781852,0.0,0.0,125.92242953903911,-45.73997712951717,65.62672968114481,-8.550612260411654,35.08320879204739,3.6531310631849827,32.18502781179256,13.749296725611694,10,1.1468148779303436e-15,1.9038939760884655e-15,4.440892098500626e-13,0.0,0.0411954545454547,1.1912322488783376,0.0411954545454547
0.24261002394198955,259.9634493680558,-34.24675347612204,256.08258572123617,-37.24623821938695,236.93442168445011,-28.555424163338913,19.148164036786056,-8.69081405604804,31.32823229825875,13.319988771692453,224.75435342297743,-50.56622699107938,256.08258572123617,-37.24623821938695,3.8808636468196425,2.999484743264912,0.0,0.0,125.47400012245517,-45.60117979092346,65.0453280897622,-8.478947411733767,34.2350252107601,3.5139002115778233,31.32823229825875,13.319988771692453,10,1.3991171319481593e-15,1.495820238191058e-15,2.220446049250313e-13,0.0,0.027463636363636468,1.1775004306965196,0.027463636363636468
0.24572040886432275,258.61977724595897,-34.12693963886369,254.28001411427755,-37.43990750910734,244.53467171785715,-32.950903888598404,9.745342396420398,-4.489003620508939,30.70414447796012,12.86362844906701,223.57586963631744,-50.30353595817436,254.28001411427755,-37.43990750910734,4.339763131681413,3.312967870243653,0.0,0.0,124.94600602261394,-45.42839303042272,64.46227902480005,-8.40380369678515,34.16758458890342,3.5286607690335146,30.70414447796012,12.86362844906701,10,1.6625819699427276e-15,1.6654845559939935e-15,2.220446049250313e-13,0.0,0.013731818181818234,1.1637686125147013,0.013731818181818234
0.24883079378665596,255.96731742057173,-34.742094223759274,254.6377410492651,-35.833665769501025,254.6377410492651,-35.833665769501025,0.0,0.0,32.554938532666775,14.215188026902636,222.0828025165983,-50.04885379640365,254.6377410492651,-35.833665769501025,1.3295763713066413,1.0915715457417476,0.0,0.0,124.33674808460202,-45.22183950081825,63.88347528223513,-8.327121865094938,33.86257914976115,3.5001075695095096,31.82311933090154,13.658248796429444,11,1.2637965415280957e-15,1.2745610134455058e-15,5.551115123125783e-14,0.0,0.0,1.2515475958073288,0.0
0.25194117870898913,248.76306621953066,-32.637655742342325,247.14836251113434,-33.94782961638076,174.33077405231657,-4.352010298676518,72.81758845881777,-29.59581931770424,31.584020462535317,13.715118393496242,215.56434204859903,-47.662948009877006,247.14836251113434,-33.94782961638076,1.6147037083963194,1.3101738740384339,0.0,0.0,118.70506375635516,-42.882954760659004,63.31493907023315,-8.251101415957624,33.54433922201073,3.471108166739617,31.03013591933885,13.296888846986134,10,1.6609690713098722e-15,2.7169208779702445e-15,1.1102230246251565e-13,0.0,0.12759677187480367,1.2378157776255105,0.12759677187480367
0.25505156363132236,248.53406325545396,-32.49947877893741,246.6148025202479,-34.03831850777982,180.39270942347991,-6.703461421639545,66.22209309676799,-27.334857086140275,31.779315828605338,13.641085439544389,214.83548669164256,-47.67940394732422,246.6148025202479,-34.03831850777982,1.9192607352060607,1.5388397288424112,0.0,0.0,118.78826931250155,-42.95687001257054,62.76292274157839,-8.178226330987737,33.28429463756258,3.455692396234081,31.47315257273651,13.411883120751614,10,1.504873372338849e-15,2.2368638914257958e-15,2.220446049250313e-13,0.0,0.11386495369298522,1.2240839594436923,0.11386495369298522
0.25816194855365554,246.88420239485876,-32.804620455216174,244.64276297364233,-34.58017506262691,185.30763208185698,-9.709179921499057,59.335130891785354,-24.87099514112785,30.680064252086932,13.080568288945088,213.96269872155543,-47.66074335157201,244.64276297364233,-34.58017506262691,2.2414394212164224,1.7755546074107345,0.0,0.0,118.73209585886445,-42.98339438604127,62.23402017012979,-8.11129710740574,32.99658269256116,3.433948141875023,30.64111993874898,13.051674969214417,10,1.2075418536126916e-15,1.9158943234928533e-15,2.220446049250313e-13,0.0,0.1001331355111672,1.2103521412618743,0.1001331355111672
0.2612723334759887,245.87655783128903,-32.74321408127416,243.2969939454087,-34.7616887322629,191.14370979211054,-12.56534559216162,52.15328415329816,-22.196343140101277,30.3348823640698,12.84233539998962,212.96211158133892,-47.60402413225255,243.2969939454087,-34.7616887322629,2.579563885880323,2.0184746509887357,0.0,0.0,118.53700205727888,-42.96171277786766,61.725915225940994,-8.051252076175967,32.699194298119046,3.4089407217910797,30.3348823640698,12.84233539998962,10,1.1543337144299587e-15,1.6147617251714961e-15,4.440892098500626e-13,0.0,0.08640131732934919,1.196620323080056,0.08640131732934919
0.26438271839832195,244.33289804893855,-32.79127930627462,241.40080921766787,-35.057198774932914,196.72761919251303,-15.75441522166308,44.67319002515484,-19.302783553269833,29.573237334760893,12.454130327221801,211.82757188290697,-47.5113291021547,241.40080921766787,-35.057198774932914,2.932088831270678,2.265919468658294,0.0,0.0,118.25620874705733,-42.90380943614804,61.183241498938145,-7.986324176780073,32.388121636911514,3.378804510773403,29.573237334760893,12.454130327221801,10,1.0569981286159841e-15,1.8315140285272185e-15,1.1102230246251565e-13,0.0,0.07266949914753096,1.1828885048982378,0.07266949914753096
0.2674931033206551,242.3387097435211,-32.95432356479924,239.0411120257572,-35.47068836227278,202.14952744736487,-19.288708231747904,36.891584578392326,-16.181980130524877,28.4861267714896,11.91375911934701,210.5549852542676,-47.38444748161979,239.0411120257572,-35.47068836227278,3.297597717763883,2.5163647974735452,0.0,0.0,117.89783772069062,-42.811649025004655,60.59550501868202,-7.914879166757192,32.061642514894984,3.342080710142044,28.4861267714896,11.91375911934701,10,1.3422369955446992e-15,1.816852807840434e-15,8.881784197001252e-13,0.0,0.058937680965712724,1.1691566867164198,0.058937680965712724
0.27060348824298835,238.957617591732,-33.44662789931988,235.2828168841261,-36.21506293643304,206.4774505013368,-23.389667918447913,28.805366382789316,-12.82539501798513,26.577631722425085,11.095112809427548,208.705185161701,-47.31017574586058,235.2828168841261,-36.21506293643304,3.6748007076059075,2.768435037113162,0.0,0.0,117.45958981357526,-42.684836035158725,59.97059748439603,-7.837817328924842,31.27499786372973,3.2124776182229695,26.577631722425085,11.095112809427548,10,1.3377792135203545e-15,2.084023625063461e-15,1.1102230246251565e-13,0.0,0.04520586278389449,1.1554248685346014,0.04520586278389449
0.27371387316532153,237.43755613729178,-33.73661780239119,236.2529118097075,-34.69255012601222,215.8412361377411,-25.468236761432465,20.411675671966407,-9.224313364579757,28.767251472704437,12.361625725815106,207.48566033700305,-47.05417585182731,236.2529118097075,-34.69255012601222,1.1846443275842735,0.9559323236210354,0.0,0.0,116.93915067798466,-42.523045414500494,59.34070246081224,-7.756504556143881,31.205807198206166,3.2253741188170792,28.34771597973099,12.044981260990916,11,1.1165036782611319e-15,2.3789352493971904e-15,8.881784197001252e-13,0.0,0.03147404460207648,1.2374956342384953,0.03147404460207648
0.27682425808765476,236.04970206363683,-33.42142394403491,234.62572720421772,-34.55649596393769,222.91774160854533,-29.18662166830356,11.707985595672397,-5.369874295634133,28.640505929975742,12.241048091579865,205.98522127424195,-46.79754405551756,234.62572720421772,-34.55649596393769,1.4239748594191004,1.135072019902776,0.0,0.0,116.33426911685812,-42.3260627929737,58.71441694556451,-7.672706081484808,30.936535211819344,3.2012248189409327,28.393920027741668,12.05649000985534,11,1.9785962856251712e-15,1.5887757356479764e-15,1.1102230246251565e-13,0.0,0.017742226420258023,1.223763816056677,0.017742226420258023
0.27993464300998794,233.7740998544296,-33.44422298860431,232.09512338578742,-34.76603342892008,229.40292071126555,-33.51292613775401,2.692202674521866,-1.2531072911660743,27.696021207454514,11.739021295815391,204.39910217833292,-46.50505472473548,232.09512338578742,-34.76603342892008,1.6789764686421962,1.3218104403157733,0.0,0.0,115.6428237344847,-42.09382555127983,58.09781880312526,-7.588429486393949,30.65845964072296,3.1772003129383055,27.66885970649742,11.71887413904679,11,2.1265093270334267e-15,1.831806457714666e-15,5.551115123125783e-14,0.0,0.004010408238440011,1.210031997874859,0.004010408238440011
0.2830450279323211,227.1234434647202,-31.28843559845346,225.17503843142487,-32.803136180823444,155.9823761613185,-4.7630060358636115,69.19266227010635,-28.040130144959832,27.053451150330833,11.415668475694796,198.12158728109404,-44.218804656518245,225.17503843142487,-32.803136180823444,1.9484050332953269,1.5147005823699817,0.0,0.0,110.24174240032443,-39.86718416957429,57.497132255000835,-7.505940912292111,30.38271262576879,3.1543204253481374,27.053451150330833,11.415668475694796,10,1.2763799203188921e-15,2.6040462039616998e-15,1.1102230246251565e-13,0.0,0.130432943638483,1.1963001796930408,0.130432943638483
0.28615541285465435,225.58388900970598,-31.477348385891922,223.35275813022017,-33.18977890618733,160.31581139308682,-7.246576758709878,63.03694673713335,-25.94320214747745,26.18445434572798,10.986140568116689,197.16830378449214,-44.17591947430399,223.35275813022017,-33.18977890618733,2.23113087948582,1.712430520295407,0.0,0.0,110.15073870668382,-39.87782297616248,56.91881498247665,-7.427788988346986,30.098750095331695,3.129692490205457,26.18445434572798,10.986140568116689,10,1.5235112044412145e-15,1.9023706727848285e-15,4.440892098500626e-13,0.0,0.11670112545666456,1.1825683615112226,0.11670112545666456
0.2892657977769875,225.22120026566517,-31.248516256751113,222.69506388212173,-33.16233244990946,166.0739242335696,-9.499630265073037,56.621139648552116,-23.66270218483642,26.459291676481353,10.90515051304972,196.23577220564036,-44.06748296295916,222.69506388212173,-33.16233244990946,2.5261363835434367,1.9138161931583426,0.0,0.0,109.9227042619122,-39.84181838838229,56.369655713983896,-7.356834404979434,29.943412229744286,3.131169830402561,26.459291676481353,10.90515051304972,10,1.0667202477815337e-15,1.6639837218563605e-15,1.1102230246251565e-13,0.0,0.10296930727484654,1.1688365433294046,0.10296930727484654
0.29237618269932075,223.81829490674355,-31.202384341427738,220.9857814395175,-33.320178551311585,171.0430317655411,-12.128365496730538,49.94274967397641,-21.191813054581047,25.88902965126567,10.622564593773635,195.09675178825182,-43.94274314508523,220.9857814395175,-33.320178551311585,2.8325134672260583,2.117794209883849,0.0,0.0,109.55726510699154,-39.75818262674157,55.84864488590125,-7.294338296552404,29.690841795359017,3.1097777782087626,25.88902965126567,10.622564593773635,10,1.4664859310587928e-15,1.5981864552849426e-15,1.1102230246251565e-13,0.0,0.08923748909302831,1.155104725147586,0.08923748909302831
0.29548656762165393,221.81283700520925,-31.367578016743934,218.6633759988613,-33.6909927130057,175.66398532841214,-15.167445925795207,42.99939067044917,-18.523546787210492,24.827968518480592,10.093705226499496,193.83540748038072,-43.784697939505186,218.6633759988613,-33.6909927130057,3.149461006347927,2.323414696261764,0.0,0.0,109.10999867786123,-39.63947241152685,55.298567695159136,-7.228124949833418,29.426841107360374,3.082899421855082,24.827968518480592,10.093705226499496,10,1.2662445181253945e-15,1.5292495859464929e-15,1.1102230246251565e-13,0.0,0.07550567091121008,1.141372906965768,0.07550567091121008
0.2985969525439871,218.96163210857648,-32.01707352017491,217.89716562358234,-32.85553358064391,182.10834007563543,-17.204778318355466,35.788825547946914,-15.650755262288442,25.446886578150387,10.73932500032997,192.45027904543198,-43.5948585809739,217.89716562358234,-32.85553358064391,1.0644664849941359,0.8384600604689948,0.0,0.0,108.59169967509521,-39.48835449207988,54.70721114054826,-7.1560354825228245,29.151368229788503,3.0495313936288024,25.329289263793257,10.651624045548884,11,1.3064151183078854e-15,2.71069786344774e-15,4.440892098500626e-13,0.0,0.061773852729392065,1.2182597069216012,0.061773852729392065
0.30170733746632034,217.49780328980935,-31.810605615458666,216.22863911956483,-32.79757467810275,187.9196121125358,-20.231426207499283,28.309027007029044,-12.566148470603466,25.28643236337413,10.576941640392924,190.94220675619076,-43.374516318495694,216.22863911956483,-32.79757467810275,1.2691641702445309,0.9869690626440807,0.0,0.0,108.00070732567676,-39.3046771812951,54.09915283651967,-7.079044907614936,28.842346593994282,3.009205770414365,25.28643236337413,10.576941640392924,11,1.1430411018069225e-15,1.7013567616946222e-15,5.551115123125783e-14,0.0,0.04804203454757383,1.2045278887397828,0.04804203454757383
0.3048177223886535,215.0007830324754,-31.782929561537415,213.51350531699904,-32.92457020741348,192.95525344555972,-23.662250752582082,20.558251871439325,-9.262319454831399,24.650980152688184,10.283218950814982,188.86252516431085,-43.20778915822845,213.51350531699904,-32.92457020741348,1.4872777154763401,1.141640645876066,0.0,0.0,107.33537063062076,-39.08837537664908,53.49291806954372,-6.998619919167798,28.034236464146367,2.8792061375884312,24.650980152688184,10.283218950814982,11,1.166836676023825e-15,1.1697931564159748e-15,1.1102230246251565e-13,0.0,0.0343102163657556,1.1907960705579648,0.0343102163657556
0.30792810731098674,213.55493970025228,-31.506116648741475,211.8369178009234,-32.807579197441456,199.30179169253327,-27.075804186324177,12.53512610839013,-5.7317750111172785,24.261664266168612,10.036671617733615,187.57525353475475,-42.844250815175045,211.8369178009234,-32.807579197441456,1.7180218993288747,1.3014625486999787,0.0,0.0,106.59412081885935,-38.83950802186811,52.89417396730951,-6.916480235800989,28.086958748585875,2.911737442494065,24.261664266168612,10.036671617733615,11,1.1389657527016895e-15,1.821793533572813e-15,2.220446049250313e-13,0.0,0.020578398183937363,1.1770642523761463,0.020578398183937363
0.3110384922333199,211.49668354526298,-31.341260442667814,209.53597585218728,-32.80678504709398,205.29723766803005,-30.83981366424399,4.238738184157228,-1.9669713828499908,23.56988326980548,9.689088324987084,185.96609258238175,-42.495873372081036,209.53597585218728,-32.80678504709398,1.9607076930757132,1.4655246044261692,0.0,0.0,105.7755343676682,-38.558296721795,52.308691769525744,-6.834573445623612,27.88186644518783,2.896996795337552,23.56988326980548,9.689088324987084,11,1.765827534621443e-15,2.1604011341930122e-15,1.1102230246251565e-13,0.0,0.006846580002119351,1.1633324341943283,0.006846580002119351
0.31414887715565315,204.35124583366093,-29.21084540364669,202.13650602363973,-30.843857636256622,138.99181329477048,-5.266854744786514,63.144692728869245,-25.57700289147011,22.67956478213545,9.240985299743192,179.45694124150427,-40.08484293599981,202.13650602363973,-30.843857636256622,2.214739810021205,1.6330122326099317,0.0,0.0,100.06798862199574,-36.20649342287549,51.74241053355941,-6.755092039795734,27.646542085949115,2.876742526671407,22.67956478213545,9.240985299743192,10,1.3660860848277514e-15,1.917550276705582e-15,5.551115123125783e-14,0.0,0.13096445097220344,1.14960061601251,0.13096445097220344
0.3172592620779863,203.99668245212067,-29.03165418909308,201.5170681947596,-30.83485423791658,143.98847411234306,-7.170345544518192,57.52859408241653,-23.66450869339839,22.86304771327852,9.148917312242556,178.6540204814811,-39.98377155015914,201.5170681947596,-30.83485423791658,2.4796142573610767,1.8032000488235005,0.0,0.0,99.90328534925699,-36.1879287844054,51.2015118243237,-6.680495901186486,27.54922330790044,2.8846531354327194,22.86304771327852,9.148917312242556,10,1.4015832983566063e-15,2.140767831391306e-15,1.1102230246251565e-13,0.0,0.1172326327903852,1.135868797830692,0.1172326327903852
0.3203696470003195,202.77926934259605,-28.993448827083657,200.02435343782707,-30.96889443238446,148.34308600781873,-9.381646026078208,51.68126743000835,-21.58724840630625,22.375741224485004,8.90167718298333,177.64861221334206,-39.87057161536779,200.02435343782707,-30.96889443238446,2.7549159047689837,1.9754456053008023,0.0,0.0,99.6101513526182,-36.125624898086244,50.69250496182055,-6.613539938057652,27.34595589890329,2.8685932207761056,22.375741224485004,8.90167718298333,10,1.2408626337856105e-15,2.3818556708835234e-15,5.551115123125783e-14,0.0,0.1035008146085672,1.1221369796488738,0.1035008146085672
0.32348003192265273,200.33455588890837,-29.593601575788078,199.36390950774435,-30.33511893378526,153.76315771381974,-10.995861329281091,45.600751793924616,-19.33925760450417,22.83227182163866,9.3916377154001,176.5316376861057,-39.72675664918538,199.36390950774435,-30.33511893378526,0.9706463811640254,0.7415173579971839,0.0,0.0,99.19680200405152,-36.02069390708361,50.20605695666303,-6.553447798904301,27.12877872539113,2.847385056802551,22.83227182163866,9.3916377154001,11,1.2461244911894046e-15,1.8066920152182003e-15,1.1102230246251565e-13,0.0,0.08976899642674896,1.1945574695557122,0.08976899642674896
0.3265904168449859,198.61657987848514,-29.59827085796433,197.46569017525556,-30.465739640378864,158.18046572376107,-13.551297720808194,39.285224451494486,-16.91444191957067,22.163355444775537,9.08776076734039,175.30233473048,-39.55350040771925,197.46569017525556,-30.465739640378864,1.1508897032295935,0.867468782414533,0.0,0.0,98.71388615643949,-35.88473312002325,49.690218848497175,-6.489073580369983,26.89822972554332,2.8203062926739957,22.163355444775537,9.08776076734039,11,1.5799399337996722e-15,1.942150851328797e-15,1.1102230246251565e-13,0.0,0.07603717824493095,1.180825651373894,0.07603717824493095
0.32970080176731914,197.09114516443657,-29.465432761788055,195.7476817559954,-30.464319362843227,163.01464374171846,-16.157732735825178,32.73303801427693,-14.30658662701805,21.785119445926426,8.887294275071174,173.96256231006893,-39.35161363791439,195.7476817559954,-30.464319362843227,1.3434634084411679,0.9988866010551716,0.0,0.0,98.16445364887716,-35.71862189798628,49.15676575368927,-6.420216094152909,26.641342907502516,2.7872243542247954,21.785119445926426,8.887294275071174,11,1.4470717277436028e-15,1.5030797555990842e-15,1.1102230246251565e-13,0.0,0.06230536006311249,1.1670938331920757,0.06230536006311249
0.3328111866896523,195.77887586156342,-29.23686729344113,194.2309261738252,-30.371943991768482,168.2881536162193,-18.862570992609875,25.942772557605906,-11.509372999158607,21.68965391837481,8.744314977869868,172.54127225545042,-39.116258969638366,194.2309261738252,-30.371943991768482,1.547949687738212,1.1350766983273526,0.0,0.0,97.54694148178706,-35.52223237663095,48.6238173815432,-6.348155443478078,26.370513392120134,2.754128850470668,21.68965391837481,8.744314977869868,11,1.6934595730039443e-15,1.804325904629459e-15,2.220446049250313e-13,0.0,0.04857354188129448,1.1533620150102577,0.04857354188129448
0.33592157161198555,193.35057215388426,-29.231562309328346,191.58656070314169,-30.50698165368786,172.67326046856525,-21.990580945886506,18.91330023457644,-8.516400707801353,20.99690507443879,8.421170534798177,170.58965562870287,-38.92815218848604,191.58656070314169,-30.50698165368786,1.7640114507425648,1.2754193443595134,0.0,0.0,96.85980025949692,-35.295520542858306,48.09674848102128,-6.274418072905878,25.633106888184688,2.6417864272781326,20.99690507443879,8.421170534798177,11,1.4489804876050592e-15,1.585358429706119e-15,2.220446049250313e-13,0.0,0.034841723699476246,1.1396301968284392,0.034841723699476246
0.3390319565343187,191.81660893106758,-29.03900371719,189.82521861156297,-30.45836742344496,178.18135857758963,-25.137151851303557,11.64386003397334,-5.321215572141405,20.38096652064265,8.098790381505294,169.44425209092037,-38.55715780495028,189.82521861156297,-30.45836742344496,1.991390319504594,1.4193637062549629,0.0,0.0,96.10156387383478,-35.03856107783521,47.58096706993433,-6.200737898873818,25.761721147151228,2.6821411717587758,20.38096652064265,8.098790381505294,11,1.4641006864134006e-15,1.7318370559553383e-15,8.326672684688674e-14,0.0,0.021109905517658012,1.1258983786466212,0.021109905517658012
0.3421423414566519,189.76472941804894,-28.936893374299128,187.53482472593348,-30.503315886396436,183.40068400904215,-28.585973849881327,4.134140716891324,-1.9173420365151088,19.578850274950696,7.7058536739519194,167.95597445098275,-38.20916956034836,187.53482472593348,-30.503315886396436,2.2299046921154577,1.5664225120973077,0.0,0.0,95.2709111641677,-34.75158363034019,47.08195606270864,-6.129065188772184,25.603107224106417,2.6714792587640197,19.578850274950696,7.7058536739519194,11,1.206386154379275e-15,1.484205638062051e-15,4.440892098500626e-13,0.0,0.00737808733584,1.1121665604648032,0.00737808733584
0.34525272637898513,183.9302326703021,-26.79599299706521,181.45078478569312,-28.512159867701243,125.49020626830415,-5.77059860695563,55.96057851738897,-22.741561260745613,19.323448742752007,7.525058934564061,162.1273360429411,-36.03721880226531,181.45078478569312,-28.512159867701243,2.4794478846089767,1.7161668706360345,0.0,0.0,90.11449649817996,-32.628902327819716,46.60532388992835,-6.061580443198263,25.407515654832807,2.6532639687526594,19.323448742752007,7.525058934564061,10,1.5090419462128961e-15,1.5246874226154111e-15,4.440892098500626e-13,0.0,0.12814684854772085,1.0984347422829848,0.12814684854772085
0.3483631113013183,182.9358608691301,-26.998935638885257,182.0321645579647,-27.664600418015183,131.20209958004762,-6.687721991184169,50.83006497791709,-20.976878426831014,20.544624360498737,8.233667677685876,161.48754019746593,-35.89826809570105,182.0321645579647,-27.664600418015183,0.9036963111653772,0.6656647791299267,0.0,0.0,89.87296612231754,-32.58036540692963,46.15686651714495,-6.000713359523704,25.457707558003435,2.6828106707522945,20.544624360498737,8.233667677685876,11,1.8204834020648593e-15,1.632564095813747e-15,5.551115123125783e-14,0.0,0.11441503036590284,1.1672732073351955,0.11441503036590284
0.35147349622365154,181.58308813135423,-27.027000925313043,180.5145176081865,-27.80306105060123,135.02019363710548,-8.73922537262942,45.49432397108103,-19.06383567797181,19.958629104325905,7.9685293274150055,160.55588850386064,-35.77159037801625,180.5145176081865,-27.80306105060123,1.068570523167716,0.7760601252881852,0.0,0.0,89.51122504468367,-32.49074261789639,45.74163724754479,-5.9489307856892,25.30302621163215,2.668083025569361,19.958629104325905,7.9685293274150055,11,1.7220286719062028e-15,1.6441067844691236e-15,5.551115123125783e-14,0.0,0.10068321218408438,1.1535413891533772,0.10068321218408438
0.3545838811459847,180.03267886772832,-27.08012058253176,178.78706212655658,-27.97186319440521,138.83508828331637,-10.974606662846746,39.95197384324021,-16.997256531558463,19.27009802887229,7.648585544772983,159.51696409768428,-35.62044873917819,178.78706212655658,-27.97186319440521,1.2456167411717436,0.8917426118734504,0.0,0.0,89.06980095226233,-32.369004292422886,45.319402862869865,-5.897744120646928,25.127760282552106,2.6462996738916242,19.27009802887229,7.648585544772983,11,1.4160940677728429e-15,1.1998882100434763e-15,4.440892098500626e-13,0.0,0.08695139400226637,1.139809570971559,0.08695139400226637
0.35769426606831795,178.42080941219103,-27.083524631538687,176.9860921780085,-28.095768911273296,142.7843113818643,-13.323905469298708,34.20178079614419,-14.771863441974588,18.61024463825992,7.349128438617337,158.37584753974866,-35.44489734989067,176.9860921780085,-28.095768911273296,1.434717234182536,1.0122442797346105,0.0,0.0,88.57228581048821,-32.22080014952955,44.884794510580065,-5.842253703809314,24.91876721868035,2.618156503448212,18.61024463825992,7.349128438617337,11,1.2801004037869457e-15,1.5146106439926736e-15,2.220446049250313e-13,0.0,0.07321957582044814,1.1260777527897408,0.07321957582044814
0.3608046509906511,177.5583947916798,-26.815462112279153,175.92257071640404,-27.952611922810938,147.67988577983164,-15.5703283248289,28.242684936572402,-12.382283597982038,18.730858123916786,7.28090506966711,157.19171259248722,-35.23351699247803,175.92257071640404,-27.952611922810938,1.6358240752757687,1.1371498105317852,0.0,0.0,88.01773419733499,-32.046187582672665,44.44791584956797,-5.783531503526843,24.726062545584295,2.5962020937214643,18.730858123916786,7.28090506966711,11,1.3242343808113567e-15,1.4267452428464328e-15,5.551115123125783e-14,0.0,0.05948775763863012,1.1123459346079227,0.05948775763863012
0.3639150359129843,176.0724646103663,-26.653945457774313,174.22350677516943,-27.92003751278198,152.14966514138234,-18.09697613681712,22.073841633787083,-9.823061375964862,18.317530708323623,7.081330368323121,155.9059760668458,-35.00136788110511,174.22350677516943,-27.92003751278198,1.8489578351968674,1.2660920550076664,0.0,0.0,87.40514068297887,-31.845280728047662,44.013494896145794,-5.722846027362962,24.487340487721127,2.566758874305533,18.317530708323623,7.081330368323121,11,1.5991198849288495e-15,1.794461141631358e-15,5.551115123125783e-14,0.0,0.04575593945681189,1.0986141164261045,0.04575593945681189
0.36702542083531753,173.8470635374326,-26.665294998451827,171.77285715846122,-28.064042700867738,156.07818103154662,-20.975365734118135,15.694676126914601,-7.088676966749603,17.586560314220005,6.736476431899414,154.1862968442412,-34.80051913276715,171.77285715846122,-28.064042700867738,2.0742063789713807,1.3987477024159105,0.0,0.0,86.73350433983924,-31.618278074194496,43.586266472915824,-5.661651722615003,23.866526031486167,2.479410664042346,17.586560314220005,6.736476431899414,11,1.3459920101260383e-15,1.3092664487719525e-15,1.1102230246251565e-13,0.0,0.032024121274993655,1.0848822982442863,0.032024121274993655
0.3701358057576507,172.39025082494618,-26.500859066407042,170.07852705565128,-28.035692154248423,160.9735777551263,-23.86212154155627,9.104949300524964,-4.173570612692153,16.92090291685811,6.423799658225832,153.15762413879318,-34.459491812474255,170.07852705565128,-28.035692154248423,2.3117237692948964,1.5348330878413812,0.0,0.0,86.00189117978515,-31.365493493700235,43.17100082789922,-5.601593039767131,23.984732131108807,2.5075947209931115,16.92090291685811,6.423799658225832,11,1.1068555657517637e-15,1.2084770804883323e-15,5.551115123125783e-14,0.0,0.018292303093175644,1.0711504800624683,0.018292303093175644
0.37324619067998394,170.8181580874896,-26.426301883377615,169.95469523881965,-27.03649647843715,167.64986255018326,-25.96432459300791,2.3048326886363952,-1.072171885429242,18.11807423663671,7.100842572590539,151.8366210021829,-34.13733905102767,169.95469523881965,-27.03649647843715,0.863462848669938,0.6101945950595346,0.0,0.0,85.20949102825013,-31.087389333161063,42.77253533130803,-5.544512684095931,23.85459464262477,2.494562966229319,18.11807423663671,7.100842572590539,12,2.7538115667988894e-15,1.4392783174476787e-15,2.220446049250313e-13,0.0,0.004560484911357188,1.1374248439584924,0.004560484911357188
0.3763565756023171,166.07188570728283,-24.49960396202916,165.05077616071026,-25.21054819842812,117.33420668847084,-5.666262913664298,47.716569472239414,-19.544285284763824,17.919806318477793,6.954599973457205,147.13096984223247,-32.165148171885335,165.05077616071026,-25.21054819842812,1.0211095465725841,0.7109442363989632,0.0,0.0,80.68568021113452,-29.217135557466662,42.395815596546974,-5.492464469288979,24.049474034550954,2.5444518548703208,17.919806318477793,6.954599973457205,11,1.0407778830018641e-15,2.380639699549158e-15,5.551115123125783e-14,0.0,0.12106063992358851,1.1236930257766744,0.12106063992358851
0.3794669605246503,164.9452070060052,-24.589161059236247,163.75364706087572,-25.406334786291346,120.71288792311336,-7.504540680546015,43.040759137762365,-17.90179410574533,17.319378282366994,6.67932537196892,146.43426877850874,-32.08566015826029,163.75364706087572,-25.406334786291346,1.19155994512949,0.8171737270551005,0.0,0.0,80.45236252041272,-29.168292474532787,42.04589760042877,-5.447714461610026,23.936008657667244,2.5303467778825386,17.319378282366994,6.67932537196892,11,1.5815262502480362e-15,1.3183215232086923e-15,4.440892098500626e-13,0.0,0.10732882174177028,1.1099612075948564,0.10732882174177028
0.3825773454469835,163.73988232773905,-24.639129648669478,162.3649251176156,-25.567704114813196,124.18598866274938,-9.44426175781068,38.17893645486622,-16.123442357002517,16.732109319650757,6.418263008532137,145.63281579796484,-31.985967123345326,162.3649251176156,-25.567704114813196,1.3749572101234548,0.9285744661437192,0.0,0.0,80.14172176905774,-29.08966191652422,41.705298321397215,-5.404803036115773,23.785795707509884,2.508497829294667,16.732109319650757,6.418263008532137,11,1.4772955010943212e-15,1.5403424908148843e-15,5.551115123125783e-14,0.0,0.09359700355995204,1.096229389413038,0.09359700355995204
0.3856877303693167,162.31287812421016,-24.735422299706475,160.7413695299257,-25.7802963667852,127.61161538440966,-11.575838016670339,33.12975414551603,-14.204458350114862,16.00668904151704,6.084993410566836,144.73468048840866,-31.865289777352046,160.7413695299257,-25.7802963667852,1.571508594284476,1.0448740670787278,0.0,0.0,79.77902125204871,-28.987187548908473,41.36006404846486,-5.3585277575191625,23.595595187895064,2.480425529075605,16.00668904151704,6.084993410566836,11,1.276405228069333e-15,1.4312213050706511e-15,4.440892098500626e-13,0.0,0.07986518537813403,1.08249757123122,0.07986518537813403
0.3887981152916499,162.07163153787116,-24.37271098545817,160.29014662162868,-25.53854369327525,132.3981352516988,-13.398564996743616,27.89201136992989,-12.139978696531635,16.417277701507434,6.158277730401715,143.87286892012125,-31.69682142367698,160.29014662162868,-25.53854369327525,1.7814849162424757,1.1658327078170796,0.0,0.0,79.3631977539461,-28.86081263574842,41.014704221303354,-5.309912214412188,23.494966944871805,2.473903426483629,16.417277701507434,6.158277730401715,11,1.5056576484430672e-15,1.490105424526849e-15,4.440892098500626e-13,0.0,0.0661333671963158,1.0687657530494015,0.0661333671963158
0.3919085002139831,160.647162518604,-24.37098715388863,158.64194236718393,-25.662226738784838,136.17726787802908,-15.73717455168019,22.464674489154845,-9.925052187104647,15.776601053932561,5.8590083032959575,142.8653413132514,-31.521235042080804,158.64194236718393,-25.662226738784838,2.0052201514200685,1.2912395848962082,0.0,0.0,78.89307306986757,-28.710509470817133,40.673674807703854,-5.260161479990325,23.298593435679972,2.4494359087266524,15.776601053932561,5.8590083032959575,11,1.2560108697411804e-15,1.3250617583515455e-15,5.551115123125783e-14,0.0,0.05240154901449756,1.0550339348675835,0.05240154901449756
0.39501888513631633,159.83550401654773,-24.248807246625358,157.5923928813768,-25.66971671137768,140.74548015362691,-18.115066630537143,16.846912727749896,-7.554650080840538,15.11352750251514,5.560087140193275,142.4788653788617,-31.229803851570978,157.5923928813768,-25.66971671137768,2.2431111351709148,1.4209094647523224,0.0,0.0,78.36741446503409,-28.53630106917075,40.34142012789668,-5.2106593166442075,23.770030785930935,2.517156534243979,15.11352750251514,5.560087140193275,11,1.295943061858488e-15,1.7314039702220923e-15,5.551115123125783e-14,0.0,0.03866973083267933,1.0413021166857652,0.03866973083267933
0.3981292700586495,156.95422105410393,-24.589709980764567,156.10469640420462,-25.16339727346311,145.06654950365245,-20.13971487143921,11.038146900552164,-5.023682402023901,15.619411951265345,5.9638257515785105,140.48528445293925,-31.127223025041616,156.10469640420462,-25.16339727346311,0.8495246498992959,0.5736872926985438,0.0,0.0,77.78499860671411,-28.338287979898563,40.02239132367003,-5.1629677770283635,22.677894522555135,2.3740327318853023,15.619411951265345,5.9638257515785105,12,1.7316792955173682e-15,1.2374354509467884e-15,5.551115123125783e-14,0.0,0.024937912650861316,1.1061259648396153,0.024937912650861316
0.4012396549809827,156.3833575791545,-24.221025590858357,155.37589814577188,-24.890806375242747,150.33778897498303,-22.56378668084514,5.038109170788857,-2.327019694397606,15.79418777154724,5.96517338792,139.58171037422466,-30.855979763162743,155.37589814577188,-24.890806375242747,1.007459433382626,0.6697807843843887,0.0,0.0,77.1446736921254,-28.11667855897872,39.72105835784369,-5.118829767068782,22.715978324255573,2.3795285628847545,15.79418777154724,5.96517338792,12,1.2147818662100328e-15,1.7451551909309596e-15,5.551115123125783e-14,0.0,0.011206094469043082,1.0923941466577973,0.011206094469043082
0.4043500399033159,151.96512404998225,-22.71604572819699,150.78553869988122,-23.487890361694042,106.97390975856413,-5.5763743614427455,43.81162894131708,-17.911516000251297,15.390234410879863,5.776148013992551,135.39530428900133,-29.264038375686596,150.78553869988122,-23.487890361694042,1.1795853501010438,0.7718446334970536,0.0,0.0,73.34175422481947,-26.54789997246713,39.44218957629657,-5.080175874942205,22.611360487885307,2.36403747172273,15.390234410879863,5.776148013992551,11,1.3330355248685356e-15,2.601788993364626e-15,5.551115123125783e-14,0.0,0.12267740038256125,1.078662328475979,0.12267740038256125
0.4074604248256491,151.72097624081474,-22.660336416404505,150.3546808907826,-23.54002046458516,110.76579185427305,-7.104117267462783,39.58888903650954,-16.43590319712238,14.977491041774122,5.581008784291211,135.37718984900846,-29.12102924887637,150.3546808907826,-23.54002046458516,1.3662953500321564,0.8796840481806557,0.0,0.0,73.15444081655997,-26.511994621349114,39.19617802558857,-5.04845831079159,23.02657100685991,2.439423683264339,14.977491041774122,5.581008784291211,11,1.1008347237369547e-15,2.1253979775160677e-15,1.1102230246251565e-13,0.0,0.10894558220074324,1.0649305102941609,0.10894558220074324
0.4105708097479823,150.63300421034742,-22.773602131750657,149.0649583013502,-23.76673015325487,113.86802227265787,-8.929524771347978,35.196936028692335,-14.837205381906891,14.31740153415485,5.2877375048542,134.74755676719533,-29.054467658109054,149.0649583013502,-23.76673015325487,1.568045908997219,0.9931280215042128,0.0,0.0,72.91088732348037,-26.452498680528933,38.954755785943554,-5.0163080484687494,22.88191365777143,2.4143390708886248,14.31740153415485,5.2877375048542,11,1.1783288131155683e-15,1.811184305577071e-15,1.1102230246251565e-13,0.0,0.095213764018925,1.0511986921123426,0.095213764018925
0.4136811946703155,150.12492933571215,-22.616884528120274,148.33957206302304,-23.728910748797816,117.70510315765064,-10.617832686034639,30.6344689053724,-13.111078062763177,14.323783558493574,5.243963196220114,134.01578850452944,-28.972873945017916,148.33957206302304,-23.728910748797816,1.7853572726891007,1.1120262206775426,0.0,0.0,72.622131042358,-26.372139267240094,38.71047649447565,-4.981833623651818,22.683180967695783,2.3810989458739957,14.323783558493574,5.243963196220114,11,1.2683401746141997e-15,2.4150883760945487e-15,5.551115123125783e-14,0.0,0.08148194583710677,1.0374668739305246,0.08148194583710677
0.41679157959264873,149.535300800187,-22.52230529494896,147.5164869955726,-23.75855122676279,121.61616991525939,-12.505461350679873,25.9003170803132,-11.253089876082917,14.035093297160676,5.058761148906423,133.48139369841195,-28.817312375669232,147.5164869955726,-23.75855122676279,2.018813804614401,1.2362459318138312,0.0,0.0,72.28747749204882,-26.2709878133222,38.46723603627018,-4.945988128119069,22.72668017009294,2.3996635657720393,14.035093297160676,5.058761148906423,11,1.1421989298343559e-15,2.2875664293456924e-15,1.1102230246251565e-13,0.0,0.06775012765528854,1.0237350557487062,0.06775012765528854
0.4199019645149819,148.39829354843178,-22.513854013690775,146.1292291129941,-23.879523066271084,125.1357907971545,-14.620806521109124,20.993438315839597,-9.25871654516196,13.45357791005446,4.805730019961473,132.67565120293963,-28.68525308623255,146.1292291129941,-23.879523066271084,2.2690644354376928,1.3656690525803072,0.0,0.0,71.90606471090616,-26.149131854946496,38.228867948354214,-4.909897150458892,22.540718543679258,2.373775919172834,13.45357791005446,4.805730019961473,11,1.654560441811294e-15,2.0963731276200138e-15,4.440892098500626e-13,0.0,0.05401830947347053,1.0100032375668881,0.05401830947347053
0.4230123494373151,146.66374816734933,-22.777636056491122,145.80225847071014,-23.332125931349793,129.88932464734455,-16.208784239549345,15.912933823365591,-7.123341691800448,14.010576372575139,5.206777249972477,131.791682098135,-28.53890318132226,145.80225847071014,-23.332125931349793,0.8614896966391689,0.5544898748586724,0.0,0.0,71.47690611747826,-26.00668704647427,37.99919849331525,-4.874856143879615,22.315577487341486,2.3426400090316157,14.010576372575139,5.206777249972477,12,1.6265925046328419e-15,1.4454277174057973e-15,5.551115123125783e-14,0.0,0.04028649129165229,1.0745442713637896,0.04028649129165229
0.4261227343596483,146.01144294689374,-22.49065615676282,144.98444103186466,-23.140915744645,134.32636147507554,-18.298651188517212,10.658079556789119,-4.8422645561277875,14.266542735376593,5.242120406215087,130.71789829648807,-28.383036150860086,144.98444103186466,-23.140915744645,1.027001915029087,0.650259587882177,0.0,0.0,70.99894532274058,-25.843816553904333,37.7820636558782,-4.842328787068828,21.936889317869277,2.30310919011308,14.266542735376593,5.242120406215087,12,1.6741712129560793e-15,1.521921696529941e-15,5.551115123125783e-14,0.0,0.02655467310983406,1.0608124531819714,0.02655467310983406
0.4292331192819815,145.09091892861676,-22.376873204446465,143.88201353437182,-23.129642794887104,138.65364151195772,-20.718928458849334,5.228372022414106,-2.4107143360377705,13.8318846822775,5.043517328341094,130.05012885209433,-28.1731601232282,143.88201353437182,-23.129642794887104,1.208905394244928,0.7527695904406402,0.0,0.0,70.47111705926827,-25.66075637810562,37.584085595593386,-4.813960131558222,21.99492619723268,2.301556386435637,13.8318846822775,5.043517328341094,12,1.535848214034529e-15,1.6444855613669952e-15,5.551115123125783e-14,0.0,0.012822854928016048,1.0470806350001534,0.012822854928016048
0.4323435042043147,141.3366481062222,-21.132739288425533,139.92879034829215,-21.994648269121008,100.98960071401605,-6.006490104490219,38.939189634276104,-15.98815816463079,13.374860890052968,4.845286814024956,126.55392945823917,-26.839935083145953,139.92879034829215,-21.994648269121008,1.407857757930046,0.8619089806954756,0.0,0.0,67.25495119086665,-24.329270068074806,37.418425247827834,-4.791656575881531,21.880553019544678,2.280991560810392,13.374860890052968,4.845286814024956,11,1.4211623386033283e-15,1.3987771741501899e-15,2.220446049250313e-13,0.0,0.11869268559630552,1.033348816818335,0.11869268559630552
0.4354538891266479,141.16052840455455,-21.186315053359376,139.53594406237409,-22.163895735536627,104.48039009807917,-7.547237416233855,35.055553964294916,-14.616658319302772,12.766114072528353,4.579624927101784,126.76982998984573,-26.74352066263841,139.53594406237409,-22.163895735536627,1.62458434218046,0.9775806821772511,0.0,0.0,67.15623767474337,-24.319666960315914,37.267176982585035,-4.771219364272506,22.346415332517328,2.3473656619500094,12.766114072528353,4.579624927101784,11,1.697942777075156e-15,2.1542725559214575e-15,8.326672684688674e-14,0.0,0.10496086741448729,1.019616998636517,0.10496086741448729
0.4385642740489811,140.98244190269844,-21.07446821732999,139.1225627911298,-22.17416678368273,108.10997426254029,-9.04439350917729,31.012588528589518,-13.129773274505439,12.84773367704139,4.556336456075885,126.27482911408839,-26.730503239758598,139.1225627911298,-22.17416678368273,1.8598791115686373,1.099698566352739,0.0,0.0,67.01739831695019,-24.291669973039323,37.1146008608211,-4.748791897565027,22.142829936317092,2.3099586308457507,12.84773367704139,4.556336456075885,11,2.435322097545242e-15,1.3590900963580222e-15,5.551115123125783e-14,0.0,0.09122904923266928,1.0058851804546989,0.09122904923266928
0.4416746589713143,140.7045224116425,-21.033601949545037,138.58991675548276,-22.261786530333495,111.78129553072598,-10.738558887878334,26.808621224756777,-11.523227642455161,12.466243287669432,4.358041848540645,126.12367346781336,-26.619828378874153,138.58991675548276,-22.261786530333495,2.1146056561597355,1.2281845807884597,0.0,0.0,66.83786827959736,-24.245309376139875,36.963937556751915,-4.7251845309643805,22.321867631464087,2.3506655282301026,12.466243287669432,4.358041848540645,11,1.1306034296028668e-15,2.3708662639223656e-15,5.551115123125783e-14,0.0,0.07749723105085105,0.9921533622728805,0.07749723105085105
0.4447850438936475,139.86394003644443,-21.073747018116123,137.47424177233026,-22.436712893666375,115.03210543380463,-12.644045091954638,22.44213633852563,-9.792667801711737,11.911118899576019,4.124058779837091,125.56312287275425,-26.560771673503467,137.47424177233026,-22.436712893666375,2.3896982641141773,1.3629658755502516,0.0,0.0,66.61691627416067,-24.180639991057006,36.81848684605026,-4.701375722090274,22.127719752543317,2.321244039643812,11.911118899576019,4.124058779837091,11,1.1574228160223421e-15,2.107470149921331e-15,1.1102230246251565e-13,0.0,0.06376541286903303,0.9784215440910624,0.06376541286903303
0.4478954288159807,138.67740368451348,-21.290870092197007,137.77826353402503,-21.841935507058338,119.86650905695761,-13.908286939943181,17.91175447706742,-7.933648567115156,12.86321606391613,4.648916768323569,124.91504747010889,-26.490852275381904,137.77826353402503,-21.841935507058338,0.8991401504884564,0.5510654148613316,0.0,0.0,66.35364925882638,-24.097736994849953,36.68156689437596,-4.678510128670261,21.879831316906547,2.2853948481383153,12.86321606391613,4.648916768323569,12,2.221150171946736e-15,1.4911528506645809e-15,1.1102230246251565e-13,0.0,0.05003359468721458,1.0438580161795987,0.05003359468721458
0.4510058137383139,137.82317030445148,-21.246620127851752,136.7434701189555,-21.89709395192569,123.52724127986829,-15.955468028625184,13.216228839087222,-5.941625923300506,12.555444944168107,4.512971044484057,124.18802517478741,-26.410064996409744,136.7434701189555,-21.89709395192569,1.079700185495973,0.6504738240739376,0.0,0.0,66.04703714536053,-23.99670007103431,36.55692324627916,-4.657899515299263,21.584064783147717,2.244534589923827,12.555444944168107,4.512971044484057,12,1.3037267145546093e-15,1.3552294635103403e-15,2.220446049250313e-13,0.0,0.036301776505396566,1.0301261979977807,0.036301776505396566
0.4541161986606471,138.1001125468273,-21.06028671233285,136.82031460696496,-21.81798147509874,128.46585635126738,-18.00602499337547,8.35445825569758,-3.8119564817232714,12.414214249460663,4.402012110181149,124.4061003575043,-26.219993585279887,136.82031460696496,-21.81798147509874,1.2797979398623245,0.7576947627658914,0.0,0.0,65.6959542280234,-23.877665807503416,36.476843438046025,-4.641297354818537,22.233302691434872,2.298969577042067,12.414214249460663,4.402012110181149,12,1.1939164050783104e-15,1.3100906152476028e-15,2.220446049250313e-13,0.0,0.022569958323578332,1.0163943798159623,0.022569958323578332
0.4572265835829803,137.12856848789272,-21.020366357336577,135.6281749433791,-21.893047743433485,132.3026586075879,-20.35314390208419,3.3255163357912068,-1.5399038413492931,11.96696550391561,4.216696154571943,123.66120943946349,-26.109743898005433,135.6281749433791,-21.893047743433485,1.5003935445136243,0.8726813860969066,0.0,0.0,65.30027000064534,-23.741071637784685,36.422017616252546,-4.6301910494472125,21.938921822565604,2.2615187892264554,11.96696550391561,4.216696154571943,12,1.2005761969193912e-15,1.6178635078342125e-15,2.220446049250313e-13,0.0,0.008838140141760098,1.0026625616341442,0.008838140141760098
0.46033696850531347,134.6191779557736,-19.944140829075984,132.8766548724751,-20.939532526645287,99.22299936316334,-6.969189477763365,33.65365550931175,-13.970343048881922,11.94615687031875,4.150263881838471,120.93049800215634,-25.089796408483757,132.8766548724751,-20.939532526645287,1.7425230832985295,0.9953916975693037,0.0,0.0,62.937474700923985,-22.75349549517191,36.255414175491374,-4.617833406425978,21.73760912574098,2.2815324931141294,11.94615687031875,4.150263881838471,11,1.2446069337375856e-15,2.7803152600902593e-15,2.220446049250313e-13,0.0,0.10874284975841064,0.9889307434523261,0.10874284975841064
0.4634473534276467,134.3175222687224,-20.030732972066556,132.31022225872505,-21.156518582003052,102.35517180389353,-8.529316059623504,29.95505045483152,-12.627202522379548,11.539672665836337,3.968228789832991,120.77054959288873,-25.12474737183604,132.31022225872505,-21.156518582003052,2.007300009997343,1.1257856099364971,0.0,0.0,62.93042310705163,-22.770334727621098,36.19380908832056,-4.605897377231111,21.646317397516526,2.251484733016163,11.539672665836337,3.968228789832991,11,1.175957975188341e-15,1.3283482104471024e-15,2.220446049250313e-13,0.0,0.09501103157659241,0.9751989252705078,0.09501103157659241
0.4665577383499799,134.3027637484603,-20.04202202973513,132.00684714306576,-21.30584399557891,105.90580983699601,-10.134505838293833,26.101037306069742,-11.171338157285078,11.044426804583232,3.751692970431751,120.96242033848253,-25.05753696601066,132.00684714306576,-21.30584399557891,2.2959166053945466,1.2638219658437833,0.0,0.0,62.88533150396363,-22.770533889311363,36.122280410308655,-4.593306648308884,21.95480842421027,2.306303571609577,11.044426804583232,3.751692970431751,11,1.6193685094098275e-15,1.722614904151224e-15,1.1102230246251565e-13,0.0,0.0812792133947744,0.9614671070886898,0.0812792133947744
0.4696681232723131,133.7096612431293,-20.121153546763964,131.10001577764356,-21.530609059126647,109.01056542520581,-11.932290348883527,22.08945035243775,-9.59831871024312,10.511674781935767,3.5344268846390365,120.5883409957078,-25.065035943765686,131.10001577764356,-21.530609059126647,2.609645465485738,1.4094555123626846,0.0,0.0,62.801304855323615,-22.754025094807954,36.052066642473726,-4.581073199565612,21.734969497910452,2.2700623506078816,10.511674781935767,3.5344268846390365,11,1.191268302456721e-15,1.6054378264852264e-15,2.220446049250313e-13,0.0,0.06754739521295616,0.9477352889068714,0.06754739521295616
0.4727785081946463,132.75716479900098,-20.385748588284187,131.79476312750612,-20.947958858437985,113.87646397920022,-13.044327356826834,17.91829914830589,-7.903631501611152,11.691868551786044,4.118779957113804,120.10289457572009,-25.06673881555179,131.79476312750612,-20.947958858437985,0.9624016714948624,0.5622102701537969,0.0,0.0,62.67730190776136,-22.72077175043284,35.992264015275865,-4.570359595518237,21.433328652682842,2.224392530399289,11.691868551786044,4.118779957113804,12,1.1826845161645858e-15,1.6225077449913563e-15,5.551115123125783e-14,0.0,0.05381557703113793,1.0152120448436484,0.05381557703113793
0.4758888931169795,133.48873887928355,-20.219314383787538,132.3227276411332,-20.888436125277345,118.73699071777388,-14.805772282293674,13.585736923359335,-6.082663842983671,11.636591589474246,4.056055711905064,120.68613605165898,-24.944491837182415,132.3227276411332,-20.888436125277345,1.166011238150322,0.6691217414898077,0.0,0.0,62.51212661749908,-22.67075941676348,35.99217192199207,-4.5629489557336065,22.18183751216783,2.2892165353146794,11.636591589474246,4.056055711905064,12,1.3144085231019816e-15,1.9777993597706837e-15,1.1102230246251565e-13,0.0,0.040083758849319695,1.00148022666183,0.040083758849319695
0.4789992780393127,132.79791297656527,-20.24864619418154,131.40446857285565,-21.033920381755344,122.31442475000775,-16.90323076483599,9.090043822847903,-4.130689616919355,11.22280375924272,3.8821123013710697,120.18166481361293,-24.91603268312642,131.40446857285565,-21.033920381755344,1.3934444037096099,0.7852741875738043,0.0,0.0,62.30444056038283,-22.603994674997203,36.00484666598409,-4.560121579663601,21.872377587246007,2.248083571534389,11.22280375924272,3.8821123013710697,12,1.2718068265183326e-15,1.443942426982671e-15,5.551115123125783e-14,0.0,0.026351940667501683,0.9877484084800119,0.026351940667501683
0.48210966296164587,131.98562023332627,-20.283651629909446,130.33959994053083,-21.19432196185467,125.90997306434937,-19.151459678975264,4.429626876181459,-2.0428622828794047,10.749481573796283,3.688104018704637,119.59011836673456,-24.882425980559304,130.33959994053083,-21.19432196185467,1.6460202927954481,0.9106703319452232,0.0,0.0,62.065632756359896,-22.52356947264959,36.030768242051415,-4.56058022049071,21.493717368323253,2.201723712580991,10.749481573796283,3.688104018704637,12,2.3864298300663022e-15,2.3443739041251382e-15,1.1102230246251565e-13,0.0,0.01262012248568345,0.9740165902981939,0.01262012248568345
0.4852200478839791,131.04319872613604,-19.334997131940153,129.1180535701903,-20.38030552876171,97.66066829425066,-7.289626744214324,31.457385275939657,-13.090678784547386,10.916304336612322,3.691088665916416,118.201749233578,-24.07139419467813,129.1180535701903,-20.38030552876171,1.9251451559457387,1.0453083968215575,0.0,0.0,60.249921147931474,-21.757763561258464,36.04329168824927,-4.559652110510111,21.908536397397253,2.2460214770904425,10.916304336612322,3.691088665916416,11,1.1819571253612195e-15,1.1644353967373913e-15,5.551115123125783e-14,0.0,0.1064186125147013,0.9602847721163755,0.1064186125147013
0.4883304328063123,131.2018853781111,-19.384621239789666,128.96957137549185,-20.573800076094855,101.03549310174552,-8.769389224995656,27.934078273746337,-11.804410851099199,10.451984858438196,3.4907799625510103,118.51758651705366,-24.064580038645868,128.96957137549185,-20.573800076094855,2.232314002619239,1.189178836305187,0.0,0.0,60.34112975651808,-21.806296963436093,36.03623127460673,-4.5573629279673575,22.140225485928852,2.2990798527575826,10.451984858438196,3.4907799625510103,11,1.2935104105207954e-15,1.1549207323497093e-15,5.551115123125783e-14,0.0,0.0926867943328833,0.9465529539345574,0.0926867943328833
0.4914408177286455,130.76308847253256,-19.49524700477312,128.19397626339122,-20.83750799768621,103.93693694968535,-10.429583346433809,24.257039313705874,-10.4079246512524,9.994692436206696,3.30267630208657,118.19928382718453,-24.140184299772777,128.19397626339122,-20.83750799768621,2.5691122091413434,1.342260992913091,0.0,0.0,60.40010395155937,-21.840566831353115,36.0032976930028,-4.5538595527323515,21.795882182622364,2.2542420843126845,9.994692436206696,3.30267630208657,11,1.3576609950045536e-15,1.464270215459463e-15,2.220446049250313e-13,0.0,0.07895497615106506,0.9328211357527392,0.07895497615106506
0.4945512026509787,130.2683332424442,-19.522398634912022,127.33111615402674,-21.026918309413162,106.90771740495083,-12.130376035356015,20.423398749075915,-8.896542274057147,9.749397476125967,3.171416842478659,117.5817186779008,-24.19833515189182,127.33111615402674,-21.026918309413162,2.9372170884174653,1.504519674501138,0.0,0.0,60.425978496852956,-21.860510750901476,35.78480945212051,-4.542604450171039,21.370930728927316,2.2047800491807,9.749397476125967,3.171416842478659,11,1.3821508131563554e-15,1.3819683620102532e-15,2.220446049250313e-13,0.0,0.06522315796924705,0.919089317570921,0.06522315796924705
0.4976615875733119,129.99169749455723,-19.79793943065999,128.94055176854891,-20.38510326225036,112.51002906339458,-13.119586782436912,16.43052270515433,-7.265516479813449,11.046860904038692,3.786828893153956,117.89369086451023,-24.171932155404313,128.94055176854891,-20.38510326225036,1.0511457260083181,0.5871638315903719,0.0,0.0,60.417820406066454,-21.866134013577863,35.97764510354052,-4.550292305689503,21.49822535490327,2.244494163863049,11.046860904038692,3.786828893153956,12,2.0156188347579507e-15,2.313505586764018e-15,5.551115123125783e-14,0.0,0.05149133978742859,0.9896750838200095,0.05149133978742859
0.5007719724956451,130.44662539735577,-19.81764684791704,129.1600550361655,-20.52323193828277,116.88408889311007,-15.013225670366452,12.275966143055413,-5.510006267916317,10.7253166563889,3.654502118969323,118.43473837977658,-24.177734057252096,129.1600550361655,-20.52323193828277,1.2865703611902812,0.7055850903657284,0.0,0.0,60.37459619829166,-21.85749340885651,36.19214271990157,-4.557696224268984,21.86799946158335,2.2374555758733923,10.7253166563889,3.654502118969323,12,1.3071218964723758e-15,1.7418537047678753e-15,5.551115123125783e-14,0.0,0.03775952160561058,0.9759432656381914,0.03775952160561058
0.5038823574179783,130.61127777363302,-19.83228879043994,129.05980434185838,-20.667400058282446,121.10236975850906,-17.042345577390783,7.957434583349325,-3.625054480891663,10.285585521381964,3.4765579924987406,118.77421882047643,-24.1439580507812,129.05980434185838,-20.667400058282446,1.5514734317746286,0.8351112678425079,0.0,0.0,60.30426821918995,-21.836856715886427,36.294802618256675,-4.565695672901397,22.17514798302982,2.2585943380066205,10.285585521381964,3.4765579924987406,12,1.2011544675086915e-15,1.2039379645773512e-15,1.1102230246251565e-13,0.0,0.024027703423792568,0.9622114474563733,0.024027703423792568
0.5069927423403114,130.7339668510108,-19.71589610825943,128.8863653736526,-20.691677772028385,125.41360627143673,-19.086108023536617,3.472759102215875,-1.6055697484917673,10.362417059821206,3.4473131386358933,118.52394831383141,-24.13899091066428,128.8863653736526,-20.691677772028385,1.8476014773581788,0.9757816637689548,0.0,0.0,60.223019722714845,-21.80871828780697,36.37840791083003,-4.573389292251516,21.922520680286542,2.243116669394201,10.362417059821206,3.4473131386358933,12,1.165722827509489e-15,1.6804399448434476e-15,1.1102230246251565e-13,0.0,0.010295885241974334,0.9484796292745552,0.010295885241974334
0.5101031272626447,129.67534465384895,-19.06297325012931,127.4985442195636,-20.19059341332791,99.16123570646585,-8.290498752030167,28.337308513097753,-11.900094661297743,10.037849200306427,3.307117320260052,117.46069501925717,-23.497710733587972,127.4985442195636,-20.19059341332791,2.1768004342853557,1.1276201631985996,0.0,0.0,58.847766735551474,-21.215571862135917,36.42919106686363,-4.580571556834219,22.183737216842086,2.2984326853821564,10.037849200306427,3.307117320260052,11,1.3041401956329347e-15,1.5413304678249192e-15,2.220446049250313e-13,0.0,0.09807486853460134,0.9347478110927367,0.09807486853460134
0.5132135121849779,129.36312810153132,-19.25118530120354,126.82211106398789,-20.541816725841144,101.94422115159624,-9.932902752056904,24.87788991239165,-10.60891397378424,9.510978029495256,3.096393555666996,117.31113303449263,-23.638210281508133,126.82211106398789,-20.541816725841144,2.5410170375434133,1.2906314246376032,0.0,0.0,59.05720552941363,-21.305040883114106,36.43927000811238,-4.587085486424334,21.814657496966625,2.253916088030298,9.510978029495256,3.096393555666996,11,1.1243455435022378e-15,1.5547280747599483e-15,2.220446049250313e-13,0.0,0.08434305035278333,0.9210159929109186,0.08434305035278333
0.5163238971073111,129.39946506925145,-19.29109635391416,126.45716496635393,-20.755893325487563,105.19776635068597,-11.551013574632812,21.259398615667962,-9.20487975085475,9.382449967671452,3.0068475534641452,117.07471499868248,-23.76274087895171,126.45716496635393,-20.755893325487563,2.942300102897525,1.4647969715734028,0.0,0.0,59.230691946911485,-21.380218750100312,36.41014206826808,-4.592915978615158,21.433880983502906,2.210393849763772,9.382449967671452,3.0068475534641452,11,1.7571515130513835e-15,2.2821643470237812e-15,1.1102230246251565e-13,0.0,0.07061123217096532,0.9072841747291005,0.07061123217096532
0.5194342820296443,130.3096207319709,-19.279176430512166,126.92681906023059,-20.929247619576785,109.44895594934668,-13.246545045176042,17.477863110883902,-7.682702574400743,8.913708831681351,2.8112411096698455,118.01311022854922,-23.740488729246625,126.92681906023059,-20.929247619576785,3.382801671740325,1.6500711890646187,0.0,0.0,59.36617321024973,-21.440590902755144,36.36429888755887,-4.590906133235819,22.282638130740608,2.2910083067443434,8.913708831681351,2.8112411096698455,11,1.417471191379907e-15,1.2787896778996301e-15,2.220446049250313e-13,0.0,0.05687941398914731,0.8935523565472825,0.05687941398914731
0.5225446669519774,129.60533380316838,-19.756696705057504,128.44047066949742,-20.38233658277278,114.91090412975858,-14.345332922499374,13.529566539738838,-6.037003660273406,10.333856832057151,3.4793517978666415,118.10661383744025,-23.86168838063942,128.44047066949742,-20.38233658277278,1.1648631336709685,0.625639877715276,0.0,0.0,59.4625962060279,-21.485948453067206,36.755528182674134,-4.623242393342913,21.88848944873822,2.2475024657706975,10.333856832057151,3.4793517978666415,12,1.3210676961912474e-15,1.1991697649040013e-15,1.1102230246251565e-13,0.0,0.043147595807329076,0.9681998683375872,0.043147595807329076
0.5256550518743107,130.1499339468031,-19.785435573673123,128.70824908640947,-20.545360140585352,119.29724684205443,-16.283069139391145,9.411002244355032,-4.262291001194207,10.053402170152888,3.36367599695237,118.65484691625659,-23.909036137537733,128.70824908640947,-20.545360140585352,1.4416848603936268,0.7599245669122281,0.0,0.0,59.540720604643106,-21.521400910782162,36.911317759643964,-4.643464771923245,22.202808551969518,2.255829545167673,10.053402170152888,3.36367599695237,12,1.5580717429155066e-15,1.3442936125547487e-15,1.1102230246251565e-13,0.0,0.02941577762551062,0.9544680501557686,0.02941577762551062
0.5287654367966439,130.27900857871717,-19.785195056731855,128.52376745047874,-20.69291057764903,123.40493541544025,-18.339975552501457,5.118832035038494,-2.3529350251475734,9.866150987905897,3.2560982460952355,118.65761646257285,-23.94900882374427,128.52376745047874,-20.69291057764903,1.755241128238435,0.9077155209171773,0.0,0.0,59.61139909971334,-21.550110395185378,37.00272805314333,-4.660147892339047,22.04348930971618,2.261249463780155,9.866150987905897,3.2560982460952355,12,1.5406146710260203e-15,1.5330504573521018e-15,2.220446049250313e-13,0.0,0.015683959443692386,0.9407362319739505,0.015683959443692386
0.5318758217189771,130.93543879928353,-19.68795794689466,128.8276632648937,-20.75703191272744,128.17781008144593,-20.453885388725432,0.6498531834477603,-0.3031465240020097,9.752192685143044,3.178222573867485,119.07547057975064,-23.93525448659493,128.8276632648937,-20.75703191272744,2.1077755343898334,1.069073965832783,0.0,0.0,59.677425741725976,-21.57352196245464,37.03904739459487,-4.673567650184433,22.358997443429804,2.311835126044148,9.752192685143044,3.178222573867485,12,1.2299478123881494e-15,1.6976416377675834e-15,1.1102230246251565e-13,0.0,0.0019521412618743739,0.9270044137921325,0.0019521412618743739
0.5349862066413102,129.66748298959203,-19.411268428598728,127.16584138747263,-20.655300675446895,102.43310610915064,-10.104528644407118,24.732735278321982,-10.550772031039777,9.42740389032305,3.0390407757166606,117.73843749714958,-23.694341451163563,127.16584138747263,-20.655300675446895,2.501641602119416,1.2440322468481666,0.0,0.0,59.045101195267335,-21.28717231543883,36.75418377765955,-4.669487781007424,21.939152524222685,2.2623186452826918,9.42740389032305,3.0390407757166606,11,1.2880321893008266e-15,1.1737726735223541e-15,1.1102230246251565e-13,0.0,0.08402290696576831,0.9132725956103145,0.08402290696576831
0.5380965915636434,130.43074748533454,-19.49316365076477,127.49144417431906,-20.925752982816576,106.36203174204495,-11.773908958671363,21.12941243227411,-9.151844024145213,8.963028162268158,2.8499053218081123,118.5284160120509,-23.775658304624688,127.49144417431906,-20.925752982816576,2.9393033110154865,1.4325893320518064,0.0,0.0,59.30252599989144,-21.38720250632122,37.10768327838021,-4.69775026468405,22.11820673377925,2.30929446638058,8.963028162268158,2.8499053218081123,11,1.416360211932845e-15,1.5700165583094333e-15,5.551115123125783e-14,0.0,0.0702910887839503,0.8995407774284963,0.0702910887839503
0.5412069764859767,131.85760358796722,-19.49459115502284,128.43426820415792,-21.129297380124974,111.07402053624152,-13.495604152270545,17.360247667916397,-7.63369322785443,8.830206477334533,2.7571158621919087,119.60406172682337,-23.886413242316877,128.43426820415792,-21.129297380124974,3.423335383809295,1.634706225102134,0.0,0.0,59.5369440366096,-21.47704993279381,37.561402482996606,-4.7227337620172705,22.505715207217182,2.3133704524942047,8.830206477334533,2.7571158621919087,11,1.1111151056307459e-15,1.3806080386174587e-15,5.551115123125783e-14,0.0,0.05655927060213162,0.8858089592466778,0.05655927060213162
0.5443173614083099,132.68582529694174,-19.543537623595792,128.72940198771997,-21.393838918447102,115.30843157782972,-15.403195878333982,13.420970409890245,-5.99064304011312,8.370447686754515,2.5755408323610194,120.35895430096545,-23.969379750808123,128.72940198771997,-21.393838918447102,3.9564233092217886,1.8503012948513087,0.0,0.0,59.75279876282719,-21.558028995554285,37.71821669844086,-4.741655805127291,22.887938839697377,2.3303050498734557,8.370447686754515,2.5755408323610194,11,1.0599731850056559e-15,1.1973760153606618e-15,5.551115123125783e-14,0.0,0.042827452420313605,0.8720771410648597,0.042827452420313605
0.5474277463306431,131.59509578878718,-20.095550721344217,130.29282535499954,-20.773343800114752,120.98522595267653,-16.556420698465303,9.307599402323007,-4.216923101649449,10.1086706039086,3.34739836348192,120.18415475109093,-24.120742163596674,130.29282535499954,-20.773343800114752,1.3022704337876292,0.6777930787705326,0.0,0.0,59.95706025767399,-21.632276018634876,37.82251938330651,-4.758841879005624,22.404575110110425,2.2703757340438244,10.1086706039086,3.34739836348192,12,2.0499242967289804e-15,1.8905532263186407e-15,2.220446049250313e-13,0.0,0.029095634238495593,0.9515875976588724,0.029095634238495593
0.5505381312529762,132.72420369192162,-19.981510197931417,131.09350414215643,-20.814314263696744,126.07711375767518,-18.50767298823243,5.016390384481255,-2.3066412754643153,9.960435485195552,3.2664883397256705,121.1330686569609,-24.080802603422427,131.09350414215643,-20.814314263696744,1.6306995497651937,0.8328040657653276,0.0,0.0,60.15203468490857,-21.70101668267783,37.87058735380961,-4.773290966338827,23.11044661824272,2.39350504559423,9.960435485195552,3.2664883397256705,12,1.695693352866373e-15,1.7210395101754314e-15,2.220446049250313e-13,0.0,0.015363816056677582,0.9378557794770541,0.015363816056677582
0.5536485161753095,132.84740291751763,-19.99595888270329,130.84249550443175,-21.000340268050778,130.2987129087001,-20.74658711309757,0.543782595731642,-0.25375315495320905,9.849416097197786,3.19073109975732,120.99307940723396,-24.1910713678081,130.84249550443175,-21.000340268050778,2.0049074130858875,1.0043813853474872,0.0,0.0,60.33991285617484,-21.76560021434189,37.86388862624121,-4.784380016628164,22.789277924817917,2.3589088631619557,9.849416097197786,3.19073109975732,12,1.0487478277398312e-15,1.3059092232356287e-15,2.220446049250313e-13,0.0,0.0016319978748589037,0.9241239612952357,0.0016319978748589037
0.5567589010976427,131.56045121824937,-19.693416497599046,129.1327615265609,-20.88600558067416,106.01199360892075,-10.965180382658318,23.12076791764015,-9.92082519801584,9.508634987638432,3.045403309980628,119.62412653892245,-23.931408890654776,129.1327615265609,-20.88600558067416,2.4276896916884834,1.1925890830751122,0.0,0.0,59.70291210681258,-21.465704960768655,37.557642642228146,-4.77603211265655,22.36357178988173,2.310328182770423,9.508634987638432,3.045403309980628,11,1.097162611346025e-15,1.7224046752408172e-15,1.1102230246251565e-13,0.0,0.07851879783069204,0.9103921431134175,0.07851879783069204
0.5598692860199759,133.79162004408676,-19.785753947557616,130.88966323144032,-21.183199527363463,111.36579080970428,-12.67694846724308,19.523872421736044,-8.506251060120384,9.14542209156524,2.8942435782316904,121.74424113987509,-24.07744310559515,130.88966323144032,-21.183199527363463,2.9019568126464352,1.3974455798058463,0.0,0.0,60.12576154859788,-21.631124194666725,38.446487720615416,-4.827819424748327,23.171991870661778,2.381500513819912,9.14542209156524,2.8942435782316904,11,1.7435131666829823e-15,1.253905365747494e-15,1.1102230246251565e-13,0.0,0.06478697964887381,0.8966603249315994,0.06478697964887381
0.562979670942309,135.42536863436715,-19.79753511674522,131.99463582732466,-21.416453584026378,116.24944557065544,-14.451954256490815,15.745190256669218,-6.964499327535563,8.950517134647276,2.780646810613786,123.04411869267737,-24.19710039464016,131.99463582732466,-21.416453584026378,3.430732807042498,1.6189184672811594,0.0,0.0,60.52052313524164,-21.785241128125797,38.695221830127615,-4.855415904821868,23.82837372730812,2.443556638307509,8.950517134647276,2.780646810613786,11,1.0989377438035119e-15,1.9128223276433496e-15,5.551115123125783e-14,0.0,0.0510551614670558,0.8829285067497814,0.0510551614670558
0.5660900558646422,135.64306036730576,-19.9582842345343,131.62590659650553,-21.815203487243494,119.8474379744149,-16.52651279019274,11.778468622090628,-5.288690697050754,8.49093184860847,2.59925933680368,123.13497474789706,-24.414462824047177,131.62590659650553,-21.815203487243494,4.0171537708002365,1.8569192527091931,0.0,0.0,60.89695163834888,-21.930356572808233,38.8476565268289,-4.8790344721668415,23.390366582719277,2.3949282209279,8.49093184860847,2.59925933680368,11,1.1164319619265075e-15,1.893188769227051e-15,1.1102230246251565e-13,0.0,0.03732334328523779,0.8691966885679634,0.03732334328523779
0.5692004407869755,135.73488637246015,-20.09526101253858,131.07042045128551,-22.2065590807997,123.45269282784079,-18.734762745845366,7.617727623444722,-3.471796334954334,8.048036550513816,2.425794760657276,123.02238390077169,-24.63235384145697,131.07042045128551,-22.2065590807997,4.664465921174645,2.11129806826112,0.0,0.0,61.255728042101524,-22.06682862015929,38.923452751570075,-4.899071500953694,22.843203107100088,2.3335462796560122,8.048036550513816,2.425794760657276,11,1.4305655782020396e-15,1.7604446610847374e-15,1.6653345369377348e-13,0.0,0.02359152510341911,0.8554648703861447,0.02359152510341911
0.5723108257093087,136.01621011365444,-20.52933998202223,134.55528587101847,-21.273451329946788,131.29805698787044,-19.766833533925436,3.2572288831480307,-1.5066177960213523,10.276088007567575,3.3567425647327074,124.27919786345089,-24.6301938946795,134.55528587101847,-21.273451329946788,1.4609242426359594,0.7441113479245571,0.0,0.0,61.59750366804006,-22.19514473172504,38.920941149572506,-4.914218352919848,23.760753045838335,2.479169189965381,10.276088007567575,3.3567425647327074,12,1.2397382960093568e-15,1.8365903087183697e-15,2.220446049250313e-13,0.0,0.009859706921601097,0.9404580438661044,0.009859706921601097
0.5754212106316419,136.36298674105967,-20.418601981866136,134.5116649674316,-21.343923196314535,109.48996385751377,-10.651038450522115,25.021701109917842,-10.69288474579242,9.974540718714158,3.2413920205589584,124.53712424871745,-24.58531521687349,134.5116649674316,-21.343923196314535,1.8513217736280516,0.9253212144484002,0.0,0.0,61.51879543082984,-22.138101397424435,38.854623009835635,-4.908093105530428,24.16370580805197,2.460879286081372,9.974540718714158,3.2413920205589584,11,1.0299881234213826e-15,1.989631097979587e-15,1.1102230246251565e-13,0.0,0.08228019682843968,0.9267262256842863,0.08228019682843968
0.578531595553975,137.3903707808981,-20.53164592513637,135.0919620567806,-21.658594737780447,113.76576318325627,-12.404870395453024,21.326198873524334,-9.253724342327423,9.941609811769132,3.185217671248732,125.15035224501146,-24.84381240902917,135.0919620567806,-21.658594737780447,2.2984087241174995,1.1269488126440779,0.0,0.0,61.93943678354059,-22.299569339801167,39.515999369750496,-4.961786944434669,23.694916091720373,2.41754387520667,9.941609811769132,3.185217671248732,11,1.355771388405463e-15,1.43791761938514e-15,1.6653345369377348e-13,0.0,0.06854837864662144,0.9129944075024683,0.06854837864662144
0.5816419804763082,138.40677011306536,-20.571775399917307,135.60121766778556,-21.920809920332772,118.15458034659157,-14.235079629019062,17.44663732119399,-7.68573029131371,9.598507365594442,3.038284520618138,126.00271030219112,-24.959094440950906,135.60121766778556,-21.920809920332772,2.805552445279802,1.349034520415466,0.0,0.0,62.340002039663126,-22.452126830534972,39.75347845330604,-4.992309636610901,23.90922980922194,2.4853420261949744,9.598507365594442,3.038284520618138,11,1.0924902542672365e-15,1.6490845582443504e-15,1.1102230246251565e-13,0.0,0.05481656046480343,0.8992625893206503,0.05481656046480343
0.5847523653986415,140.19343062382097,-20.53711401810357,136.8172012427979,-22.12866669674895,123.44072745000808,-16.14682320490214,13.37647379278981,-5.98184349184681,9.43768426673139,2.936618809344809,127.37951697606653,-25.065285506093765,136.8172012427979,-22.12866669674895,3.3762293810230672,1.5915526786453813,0.0,0.0,62.725371123305614,-22.59703492623612,39.91752939537763,-5.018295928369049,24.736616457383285,2.550045348511409,9.43768426673139,2.936618809344809,11,1.555854807799621e-15,1.1330224796122867e-15,1.1102230246251565e-13,0.0,0.041084742282984754,0.8855307711388316,0.041084742282984754
0.5878627503209747,140.56375914720266,-20.61761250573609,136.5497378041982,-22.472018311482927,127.44026433611006,-18.337158221820268,9.10947346808814,-4.134860089662659,9.113297574296062,2.7942879518862656,127.43644022990215,-25.266306263369202,136.5497378041982,-22.472018311482927,4.0140213430044565,1.8544058057468353,0.0,0.0,63.096435217595676,-22.734793918786412,40.0000437367354,-5.040417662526876,24.339961275571056,2.5089053179440963,9.113297574296062,2.7942879518862656,11,1.1990943754103027e-15,1.224099350428968e-15,2.220446049250313e-13,0.0,0.027352924101166742,0.8717989529570136,0.027352924101166742
0.5909731352433079,140.0943000915419,-20.707420424963484,135.3716888212155,-22.84483926759234,130.7319990907196,-20.70742260374091,4.639689730495917,-2.1374166638514325,8.613508424150178,2.600580012302431,126.75818039706532,-25.445419279894764,135.3716888212155,-22.84483926759234,4.722611270326379,2.1374188426288563,0.0,0.0,63.45402212748953,-22.866044612361236,39.53326146789754,-5.029612677052457,23.77089680167825,2.4502380095189267,8.613508424150178,2.600580012302431,11,2.0367949143309174e-15,1.1557333449754437e-15,1.1102230246251565e-13,0.0,0.01362110591934873,0.8580671347751956,0.01362110591934873
0.594083520165641,142.06276969277278,-20.312531790041362,136.55699123348515,-22.752865242201644,110.922595366076,-11.801289657855854,25.634395867409154,-10.95157558434579,8.229046896717142,2.438667872912214,128.327944336768,-25.191533115113856,136.55699123348515,-22.752865242201644,5.5057784592876375,2.4403334521602824,0.0,0.0,63.18023271335421,-22.71937187965866,40.19707795960734,-5.085619899955077,24.950633663806464,2.613458664499886,8.229046896717142,2.438667872912214,10,1.7607996877624672e-15,1.4518048440796068e-15,1.1102230246251565e-13,0.0,0.08245957097155943,0.8443353165933775,0.08245957097155943
0.5971939050879742,142.23503163027453,-21.178732531037,140.5981108415502,-22.00394211188531,118.7185189305396,-12.512555012119392,21.879591911010607,-9.491387099765916,10.612949060314818,3.4553616112195575,129.98516178123538,-25.459303723104867,140.5981108415502,-22.00394211188531,1.636920788724316,0.8252095808483095,0.0,0.0,63.68630171453889,-22.91389232595035,41.023688986641204,-5.13664410598088,25.275171080055287,2.591232708826359,10.612949060314818,3.4553616112195575,11,1.4338857680848673e-15,1.4188325393220103e-15,1.1102230246251565e-13,0.0,0.06872775278974119,0.935226429348923,0.06872775278974119
0.6003042900103075,143.01909390577833,-21.244996172895497,140.92007886583332,-22.283695276482582,122.99083760051545,-14.387231197333229,17.92924126531787,-7.896464079149354,10.67434776886845,3.4431535001191014,130.24573109696487,-25.726848776601685,140.92007886583332,-22.283695276482582,2.0990150399450047,1.0386991035870843,0.0,0.0,64.17621965178432,-23.100504329361602,41.325038767781564,-5.175015264383683,24.744472677398974,2.548670817143604,10.67434776886845,3.4431535001191014,11,1.2028621041612892e-15,2.281102243854098e-15,1.1102230246251565e-13,0.0,0.054995934607922736,0.9214946111671044,0.054995934607922736
